Tiempo (s),Voltaje (V)
0.0,0.3621884477324784
0.0010000333344444814,1.4706420488655567
0.002000066668888963,0.5771943796426058
0.003000100003333444,0.6777875884436071
0.004000133337777926,1.374548216816038
0.005000166672222407,1.47385588940233
0.006000200006666888,1.0836956482380629
0.00700023334111137,1.362657006829977
0.008000266675555852,0.7333870297297835
0.009000300010000333,0.36990166502073407
0.010000333344444815,0.9512854181230068
0.011000366678889296,1.3812972819432616
0.012000400013333776,0.55630441615358
0.013000433347778258,0.3390487958677113
0.01400046668222274,0.18703413847833872
0.015000500016667221,0.9027564260177314
0.016000533351111703,1.3430525795556605
0.017000566685556183,1.219319718889892
0.018000600020000666,0.9577130991965532
0.019000633354445146,1.0753396628424525
0.02000066668888963,1.3780834414064884
0.02100070002333411,1.6686146259307861
0.022000733357778593,1.2247832478024065
0.023000766692223073,0.45571120735257864
0.024000800026667553,0.6401856541633606
0.025000833361112036,0.27541475323960185
0.026000866695556516,0.5739805391058326
0.027000900030001,0.7253524283878505
0.02800093336444548,0.6662177625112236
0.029000966698889963,0.6218667631037533
0.030001000033334443,0.32747896993532777
0.031001033367778926,0.15907372580841184
0.032001066702223406,0.1555385012179613
0.03300110003666789,0.772917268332094
0.034001133371112366,1.182039168663323
0.03500116670555685,1.2569216531701386
0.03600120004000133,0.49684836622327566
0.037001233374445816,0.3229795931838453
0.03800126670889029,0.9461432732641697
0.039001300043334776,1.2800613050349057
0.04000133337777926,0.8612978830933571
0.041001366712223736,0.720853051636368
0.04200140004666822,0.689678798429668
0.0430014333811127,0.5694811623543501
0.044001466715557186,0.5823365245014429
0.04500150005000166,1.1023359233513474
0.046001533384446146,1.9880703752860427
0.04700156671889063,2.429652065038681
0.048001600053335106,1.8839419418945909
0.04900163338777959,1.511136439628899
0.05000166672222407,0.8436217601411045
0.051001700056668556,0.7150681386701763
0.05200173339111303,0.13625545799732208
0.053001766725557516,0.2844135067425668
0.054001800060002,0.4001117660664022
0.05500183339444648,0.19892534846439958
0.05600186672889096,0.9233250054530799
0.05700190006333544,1.7631015377119184
0.058001933397779926,1.8302708049304783
0.0590019667322244,0.6115824733860791
0.060002000066668885,0.4595678159967065
0.06100203340111337,1.0473792501725256
0.06200206673555785,0.9095054911449552
0.06300210007000233,0.597441575024277
0.06400213340444681,0.5820151404477656
0.0650021667388913,0.17803538497537374
0.06600220007333578,0.78898647101596
0.06700223340778026,1.4356111870147288
0.06800226674222473,0.312695303466171
0.06900230007666922,0.2728436808101833
0.0700023334111137,0.5945491185411811
0.07100236674555818,0.3576890709809959
0.07200240008000267,0.6257233717478812
0.07300243341444715,0.1693580155260861
0.07400246674889163,0.6029051039367914
0.0750025000833361,0.7668109713122249
0.07600253341778059,1.2678487109951675
0.07700256675222507,1.3051292612217367
0.07800260008666955,1.0930157857947052
0.07900263342111404,1.9074029778130352
0.08000266675555852,1.9485401366837323
0.081002700090003,1.55420190282166
0.08200273342444747,1.178182560019195
0.08300276675889195,0.2480971086770296
0.08400280009333644,0.3091600788757205
0.08500283342778092,1.5435962290503085
0.0860028667622254,1.3015940366312861
0.08700290009666989,0.29276949213817716
0.08800293343111437,0.36668782448396087
0.08900296676555884,0.23652728274464607
0.09000300010000332,0.8902224479243159
0.09100303343444781,0.39754069363698363
0.09200306676889229,0.27220091270282865
0.09300310010333677,0.18606998631730676
0.09400313343778126,1.4783552661538124
0.09500316677222574,3.6174875274300575
0.09600320010667021,2.4132614783011377
0.0970032334411147,1.644510821904987
0.09800326677555918,0.5087395762093365
0.09900330011000366,0.2072813338600099
0.10000333344444814,0.2821638183668256
0.10100336677889263,2.7381807565689087
0.10200340011333711,4.008290536701679
0.1030034334477816,3.354273987468332
0.10400346678222606,2.463718774728477
0.10500350011667055,2.837809813208878
0.10600353345111503,1.3623356227762997
0.10700356678555951,0.5569471842609346
0.108003600120004,0.2683443040587008
0.10900363345444848,0.7844870942644775
0.11000366678889296,0.22238638438284397
0.11100370012333743,0.6604328495450318
0.11200373345778192,0.9162545562721789
0.1130037667922264,0.53830690914765
0.11400380012667088,0.912397947628051
0.11500383346111537,1.0493075544945896
0.11600386679555985,2.124979982152581
0.11700390013000433,2.3496274356730282
0.1180039334644488,1.191037922166288
0.11900396679889329,1.7071807123720646
0.12000400013333777,2.1461913296952844
0.12100403346778225,3.5953120277263224
0.12200406680222674,1.896154535934329
0.12300410013667122,0.3197657526470721
0.1240041334711157,0.2651304635219276
0.12500416680556017,0.5125961848534644
0.12600420014000466,0.5781585318036377
0.12700423347444914,0.5209521702490747
0.12800426680889362,0.8815450784750283
0.1290043001433381,1.1556856762617826
0.1300043334777826,2.6507642939686775
0.13100436681222707,3.700404613278806
0.13200440014667156,3.973902442958206
0.13300443348111604,1.529133946634829
0.13400446681556052,1.3552651735953987
0.135004500150005,0.6347221252508461
0.13600453348444946,1.3755123689770699
0.13700456681889395,1.8257714281789958
0.13800460015333843,1.2263901680707932
0.1390046334877829,0.8960073608905077
0.1400046668222274,0.23813420301303267
0.14100470015667188,1.3170204712077975
0.14200473349111636,2.496821332257241
0.14300476682556085,1.1913593062199652
0.14400480016000533,1.578305706847459
0.14500483349444981,2.9239407395944
0.1460048668288943,2.1612963802181184
0.14700490016333878,0.753955609165132
0.14800493349778326,2.2072542998939753
0.14900496683222775,1.279418536927551
0.1500050001666722,1.7039668718352914
0.1510050335011167,1.2970946598798037
0.15200506683556117,1.9183300356380641
0.15300510017000565,1.5860189241357148
0.15400513350445014,0.8805809263139963
0.15500516683889462,0.24102665949612856
0.1560052001733391,0.19024797901511192
0.1570052335077836,1.4417174840345979
0.15800526684222807,1.5529163666069508
0.15900530017667255,1.098800698760897
0.16000533351111704,1.5667358809150755
0.16100536684556152,1.0509144747629762
0.162005400180006,1.7602090812288225
0.1630054335144505,0.9361803676001728
0.16400546684889494,1.077910735271871
0.16500550018333943,0.9101482592523098
0.1660055335177839,1.1698265746235847
0.1670055668522284,1.2665631747804582
0.16800560018667288,1.0933371698483825
0.16900563352111736,1.0518786269240081
0.17000566685556184,0.6861435738392174
0.17100570019000633,0.1536101968958974
0.1720057335244508,1.13800955330953
0.1730057668588953,1.2726694718003273
0.17400580019333978,1.7174650020897388
0.17500583352778426,3.0952384402044117
0.17600586686222874,2.030493070371449
0.17700590019667323,0.43707093223929405
0.17800593353111768,0.3985048457980156
0.17900596686556217,0.3621884477324784
0.18000600020000665,0.3371204915456474
0.18100603353445113,1.1437944662757218
0.18200606686889562,0.45121183060109615
0.1830061002033401,3.6268076649867
0.18400613353778458,3.2543235467746854
0.18500616687222907,1.4099004627205431
0.18600620020667355,0.24134804354980588
0.18700623354111803,0.7529914570041001
0.18800626687556252,2.267353117931634
0.189006300210007,1.772743059322238
0.19000633354445148,0.49652698216959834
0.19100636687889597,1.4896037080325186
0.19200640021334042,1.1936089945957065
0.1930064335477849,0.9503212659619749
0.1940064668822294,0.8146971953101456
0.19500650021667387,0.8497280571609735
0.19600653355111836,1.640332829207182
0.19700656688556284,4.016003753989935
0.19800660022000732,2.3788733845576644
0.1990066335544518,1.829949420876801
0.2000066668888963,0.42775079468265176
0.20100670022334077,0.9593200194649398
0.20200673355778526,2.7590707200579345
0.20300676689222974,2.2634965092875063
0.20400680022667422,1.9138306588865817
0.2050068335611187,1.3543010214343667
0.2060068668955632,1.1222617346793413
0.20700690023000765,2.2914569219574332
0.20800693356445213,4.132023397367448
0.2090069668988966,3.35813059611246
0.2100070002333411,1.289381442591548
0.21100703356778558,0.8468356006778777
0.21200706690223006,3.0168207311071455
0.21300710023667455,3.897734422236681
0.21400713357111903,2.3730884715914726
0.2150071669055635,0.7096046097576618
0.216007200240008,0.4907420692034066
0.21700723357445248,0.8153399634175003
0.21800726690889696,1.1846102410927415
0.21900730024334145,3.7007259973324835
0.22000733357778593,3.38930484931916
0.22100736691223039,3.6779077295213938
0.22200740024667487,2.844880262389779
0.22300743358111935,2.3306657765060663
0.22400746691556384,0.4267866425216198
0.22500750025000832,1.3086644858121872
0.2260075335844528,4.204977577552199
0.22700756691889729,5.6942712822929025
0.22800760025334177,5.60460513131693
0.22900763358778625,2.8712337547913194
0.23000766692223074,1.5580585114657879
0.23100770025667522,0.9506426500156522
0.2320077335911197,1.078874887432903
0.23300776692556419,2.528959737624973
0.23400780026000867,5.200303991790861
0.23500783359445312,5.7273738398216665
0.2360078669288976,5.762083317618817
0.2370079002633421,4.755187077447772
0.23800793359778658,2.7079706555232406
0.23900796693223106,0.304660702124238
0.24000800026667554,3.3118512923829257
0.24100803360112003,5.129920884035528
0.2420080669355645,3.5782786728814244
0.243008100270009,2.300134291406721
0.24400813360445348,2.729503387119621
0.24500816693889796,1.530098098795861
0.24600820027334244,0.8150185793638229
0.24700823360778693,1.3748696008697152
0.2480082669422314,2.318131798412651
0.24900830027667586,1.9369703107513487
0.25000833361112035,0.7690606596879661
0.25100836694556483,1.2119278856553137
0.2520084002800093,2.7089348076842725
0.2530084336144538,4.304606634192169
0.2540084669488983,3.6213441360741854
0.25500850028334276,4.729797737207264
0.25600853361778725,3.365201045293361
0.25700856695223173,1.9244363326579332
0.2580086002866762,1.0753396628424525
0.2590086336211207,1.4867112515494227
0.2600086669555652,2.4492564923129976
0.26100870029000967,1.9842137666419148
0.26200873362445415,2.832667668350041
0.26300876695889863,1.7544241682626307
0.2640088002933431,0.5627320972271264
0.2650088336277876,1.379690361674875
0.2660088669622321,0.438035084400326
0.26700890029667657,1.1865385454148054
0.26800893363112105,0.8487639049999416
0.26900896696556553,0.6196170747280121
0.27000900030001,0.8577626585029066
0.27100903363445444,1.2096781972795725
0.2720090669688989,1.7165008499287069
0.2730091003033434,1.355586557649076
0.2740091336377879,1.6014453587122262
0.2750091669722324,0.8336588544771075
0.27600920030667686,0.6736095957458019
0.27700923364112134,0.6572190090082586
0.2780092669755658,1.371655760332942
0.2790093003100103,2.802457567304373
0.2800093336444548,5.6177818775177
0.2810093669788993,4.475582950748503
0.28200940031334376,1.7695292187854648
0.28300943364778824,1.5750918663106859
0.28400946698223273,1.2116065016016364
0.2850095003166772,1.7357838931493461
0.2860095336511217,1.1714334948919713
0.2870095669855662,0.48399300407618284
0.28800960032001066,2.0992692578583956
0.28900963365445514,1.9678231799043715
0.29000966698889963,2.112767388112843
0.2910097003233441,2.0954126492142677
0.2920097336577886,0.6202598428353667
0.2930097669922331,1.2090354291722178
0.29400980032667756,2.871876522898674
0.29500983366112205,3.91701746545732
0.29600986699556653,0.5100251124240458
0.297009900330011,1.2055002045817673
0.2980099336644555,1.731605900451541
0.2990099669988999,2.4229029999114573
0.3000100003333444,2.1384781124070287
0.3010100336677889,0.32876450615003705
0.3020100670022334,1.580234011169523
0.30301010033667786,0.4161809687502682
0.30401013367112234,0.7189247473143041
0.3050101670055668,0.24681157246232033
0.3060102003400113,1.6011239746585488
0.3070102336744558,3.400553291197866
0.3080102670089003,2.9094784571789205
0.30901030034334476,0.9651049324311316
0.31001033367778924,0.980531367007643
0.3110103670122337,3.0145710427314043
0.3120104003466782,3.4420118341222405
0.3130104336811227,1.4426816361956298
0.3140104670155672,1.6862907488830388
0.31501050035001166,0.9667118526995182
0.31601053368445614,0.46535272896289825
0.3170105670189006,0.2493826448917389
0.3180106003533451,0.31333807157352567
0.3190106336877896,0.9345734473317862
0.3200106670222341,1.5619151201099157
0.32101070035667856,2.9364747176878154
0.32201073369112304,3.4609734932892025
0.3230107670255675,2.042705664411187
0.324010800360012,0.23652728274464607
0.3250108336944565,1.2299253926612437
0.326010867028901,1.7451040307059884
0.32701090036334546,2.4373652823269367
0.3280109336977899,1.3517299490049481
0.32901096703223437,0.6694316030479968
0.33001100036667885,0.9011495057493448
0.33101103370112334,0.4865640765056014
0.3320110670355678,0.2953405645675957
0.3330111003700123,0.40911051956936717
0.3340111337044568,0.29084118781611323
0.33501116703890127,0.3062676223926246
0.33601120037334575,0.9095054911449552
0.33701123370779024,1.4838187950663269
0.3380112670422347,1.2087140451185405
0.3390113003766792,0.5238446267321706
0.3400113337111237,0.6594686973839998
0.34101136704556817,1.7373908134177327
0.34201140038001265,3.276820430532098
0.34301143371445714,1.9800357739441097
0.3440114670489016,0.5145244891755283
0.3450115003833461,0.4222872657701373
0.3460115337177906,1.1254755752161145
0.34701156705223507,1.7451040307059884
0.34801160038667955,2.2978846030309796
0.34901163372112404,1.2045360524207354
0.3500116670555685,0.5129175689071417
0.351011700390013,0.6909643346443772
0.3520117337244575,0.9914584248326719
0.35301176705890197,0.3734368896111846
0.35401180039334645,0.5174169456586242
0.35501183372779094,0.8680469482205808
0.35601186706223537,1.0640912209637463
0.35701190039667985,0.5469842785969377
0.35801193373112433,0.6633253060281277
0.3590119670655688,0.464067192748189
0.3600120004000133,0.4878496127203107
0.3610120337344578,0.7796663334593177
0.36201206706890227,1.1778611759655178
0.36301210040334675,0.613510777708143
0.36401213373779123,0.7616688264533877
0.3650121670722357,0.65464793657884
0.3660122004066802,0.280556898098439
0.3670122337411247,0.2194939278997481
0.36801226707556917,0.35704630287364125
0.36901230041001365,0.23620589869096875
0.37001233374445813,0.2776644416153431
0.3710123670789026,0.2259216089732945
0.3720124004133471,0.22206500032916665
0.3730124337477916,0.3120525353588164
0.37401246708223607,0.9265388459898531
0.37501250041668055,1.1254755752161145
0.37601253375112503,0.9381086719222367
0.3770125670855695,0.404932526871562
0.378012600420014,0.646613335236907
0.3790126337544585,0.20374610926955938
0.38001266708890297,0.2561317100189626
0.38101270042334745,0.18799829063937068
0.38201273375779193,0.23877697112038732
0.3830127670922364,0.3734368896111846
0.38401280042668084,0.6832511173561215
0.38501283376112533,0.8741532452404499
0.3860128670955698,0.4643885768018663
0.3870129004300143,0.18124922551214695
0.3880129337644588,0.4316074033267796
0.38901296709890326,0.4788508592173457
0.39001300043334775,0.430000483058393
0.39101303376779223,0.4486407581716776
0.3920130671022367,0.9522495702840388
0.3930131004366812,0.6768234362825751
0.3940131337711257,0.472101794090122
0.39501316710557016,0.36958028096705675
0.39601320044001465,0.32426512939855456
0.39701323377445913,0.2638449273072183
0.3980132671089036,0.6247592195868492
0.3990133004433481,0.5450559742748737
0.4000133337777926,0.23845558706671
0.40101336711223706,0.28666319511830807
0.40201340044668155,0.4177878890186548
0.40301343378112603,0.47595840273424983
0.4040134671155705,0.30241101374849677
0.405013500450015,0.5097037283703685
0.4060135337844595,0.7394933267496526
0.40701356711890396,0.21274486277252436
0.40801360045334845,0.3621884477324784
0.40901363378779293,0.22335053654387593
0.4100136671222374,0.1822133776731789
0.4110137004566819,0.14043345069512725
0.4120137337911264,0.1539315809495747
0.4130137671255708,0.6051547923125327
0.4140138004600153,0.4068608311936259
0.4150138337944598,0.4910634532570839
0.41601386712890426,0.7658468191511929
0.41701390046334874,0.697713399771601
0.4180139337977932,0.5174169456586242
0.4190139671322377,0.2808782821521163
0.4200140004666822,0.2182083916850388
0.4210140338011267,0.337763259653002
0.42201406713557116,0.3120525353588164
0.42301410047001564,0.31301668751984835
0.4240141338044601,0.1822133776731789
0.4250141671389046,0.24906126083806157
0.4260142004733491,0.23620589869096875
0.4270142338077936,0.22367192059755325
0.42801426714223806,0.1725718560628593
0.42901430047668254,0.130149160977453
0.430014333811127,0.20792410196736455
0.4310143671455715,0.1600378779694438
0.432014400480016,0.2522751013748348
0.4330144338144605,0.3406557161360979
0.43401446714890496,0.5942277344875038
0.43501450048334944,0.19539012387394905
0.4360145338177939,0.2307423697784543
0.4370145671522384,0.2930908761918545
0.4380146004866829,0.23492036247625947
0.4390146338211274,0.4187520411796868
0.44001466715557186,0.44831937411800027
0.4410147004900163,0.3644381361082196
0.44201473382446077,0.379864570684731
0.44301476715890525,0.2352417465299368
0.44401480049334974,0.20631718169897795
0.4450148338277942,0.23588451463729143
0.4460148671622387,0.3737582736648619
0.4470149004966832,0.5309150759130716
0.44801493383112767,0.330692810472101
0.44901496716557215,0.3329424988478422
0.45001500050001664,0.2696298402734101
0.4510150338344611,0.18414168199524283
0.4520150671689056,0.23909835517406464
0.4530151005033501,0.2712367605417967
0.45401513383779457,0.2198153119534254
0.45501516717223905,0.26448769541457295
0.45601520050668354,0.13786237826570868
0.457015233841128,0.2117807106114924
0.4580152671755725,0.196354276034981
0.459015300510017,0.3393701799213886
0.46001533384446147,0.14525421150028706
0.46101536717890595,0.38179287500679493
0.46201540051335044,0.6800372768193483
0.4630154338477949,0.16871524741873145
0.4640154671822394,0.20021088467910886
0.4650155005166839,0.12340009585022926
0.46601553385112837,0.20374610926955938
0.46701556718557286,0.15007497230544686
0.46801560052001734,0.38693501986563206
0.4690156338544618,0.5106678805314004
0.47001566718890625,0.2718795286491513
0.47101570052335073,0.16132341418415308
0.4720157338577952,0.1834989138878882
0.4730157671922397,0.38372117932885885
0.4740158005266842,0.4328929395414889
0.47501583386112867,0.48720684461295605
0.47601586719557315,0.19089074712246656
0.47701590053001763,0.23138513788580894
0.4780159338644621,0.14943220419809222
0.4790159671989066,0.1661441749893129
0.4800160005333511,0.14718251582235098
0.48101603386779557,0.15200327662751079
0.48201606720224005,0.14236175501719117
0.48301610053668453,0.1834989138878882
0.484016133871129,0.5125961848534644
0.4850161672055735,0.23588451463729143
0.486016200540018,0.3181588323786855
0.48701623387446247,0.3480475493706763
0.48801626720890695,0.19667566008865833
0.48901630054335143,0.5614465610124171
0.4900163338777959,0.5447345902211964
0.4910163672122404,0.4177878890186548
0.4920164005466849,0.5514836553484201
0.49301643388112937,0.271558144595474
0.49401646721557385,0.16839386336505413
0.49501650055001833,0.20149642089381814
0.4960165338844628,0.1394692985340953
0.4970165672189073,0.155217117164284
0.49801660055335173,0.1442900593392551
0.4990166338877962,0.4255011063069105
0.5000166672222407,0.18446306604892015
0.5010167005566852,0.25034679705277085
0.5020167338911297,0.47756532300263643
0.5030167672255742,0.3779362663626671
0.5040168005600186,0.2480971086770296
0.5050168338944632,0.14364729123190045
0.5060168672289076,0.21145932655781507
0.5070169005633521,0.24745434056967497
0.5080169338977966,0.38661363581195474
0.5090169672322411,0.34451232478022575
0.5100170005666855,0.337763259653002
0.5110170339011301,0.2352417465299368
0.5120170672355745,0.20599579764530063
0.5130171005700189,0.2538820216432214
0.5140171339044635,1.0113842361606658
0.5150171672389079,0.6086900169029832
0.5160172005733524,0.25998831866309047
0.5170172339077969,0.2149945511482656
0.5180172672422414,0.21435178304091096
0.5190173005766858,0.11568687856197357
0.5200173339111304,0.17128631984815001
0.5210173672455748,0.30369654996320605
0.5220174005800193,0.2291354495100677
0.5230174339144638,0.17450016038492322
0.5240174672489083,0.45410428708419204
0.5250175005833527,0.2088882541283965
0.5260175339177973,0.3094814629293978
0.5270175672522417,0.19346181955188513
0.5280176005866862,0.3310141945257783
0.5290176339211307,0.3544752304442227
0.5300176672555752,0.15328881284222007
0.5310177005900196,0.1288636247627437
0.5320177339244642,0.35511799855157733
0.5330177672589086,0.3200871367007494
0.5340178005933531,0.3339066510088742
0.5350178339277976,0.1725718560628593
0.5360178672622421,0.17707123281434178
0.5370179005966865,0.35993875935673714
0.5380179339311311,0.24713295651599765
0.5390179672655755,0.20953102223575115
0.54001800060002,0.22881406545639038
0.5410180339344645,0.43996338872238994
0.5420180672689089,0.19506873982027173
0.5430181006033534,0.21692285547032952
0.5440181339377979,0.2104951743967831
0.5450181672722424,0.16839386336505413
0.5460182006066868,0.17225047200918198
0.5470182339411314,0.13914791448041797
0.5480182672755758,0.43707093223929405
0.5490183006100203,0.27573613729327917
0.5500183339444648,0.2728436808101833
0.5510183672789093,0.24295496381819248
0.5520184006133537,0.20953102223575115
0.5530184339477983,0.21788700763136148
0.5540184672822427,0.16228756634518504
0.5550185006166872,0.14846805203706026
0.5560185339511317,0.20213918900117278
0.5570185672855762,0.12982777692377567
0.5580186006200206,0.1616447982378304
0.5590186339544652,0.22977821761742234
0.5600186672889096,0.36925889691337943
0.5610187006233541,0.15200327662751079
0.5620187339577986,0.1992467325180769
0.5630187672922431,0.16582279093563557
0.5640188006266875,0.11118750181049109
0.5650188339611321,0.3846853314898908
0.5660188672955765,0.5929421982727945
0.567018900630021,0.455068439245224
0.5680189339644655,0.2072813338600099
0.5690189672989099,0.2509895651601255
0.5700190006333544,0.1664655590429902
0.5710190339677989,0.1616447982378304
0.5720190673022434,0.31944436859339476
0.5730191006366878,0.41039605578407645
0.5740191339711324,0.5868359012529254
0.5750191673055768,0.6485416395589709
0.5760192006400213,0.5627320972271264
0.5770192339744658,0.2024605730548501
0.5780192673089103,0.1507177404128015
0.5790193006433547,0.388863324187696
0.5800193339777993,0.30851731076836586
0.5810193673122437,0.13368438556790352
0.5820194006466882,0.3110883831977844
0.5830194339811327,0.20438887737691402
0.5840194673155772,0.26930845621973276
0.5850195006500216,0.2869845791719854
0.5860195339844662,0.1677510952576995
0.5870195673189106,0.2323492900468409
0.5880196006533551,0.12468563206493855
0.5890196339877996,0.1677510952576995
0.5900196673222441,0.13529130583629012
0.5910197006566885,0.20599579764530063
0.5920197339911331,0.2811996662057936
0.5930197673255775,1.5108150555752218
0.594019800660022,1.705573792103678
0.5950198339944665,0.9275029981508851
0.596019867328911,0.7449568556621671
0.5970199006633554,0.6928926389664412
0.5980199339977998,0.2538820216432214
0.5990199673322444,0.3795431866310537
0.6000200006666888,0.20117503684014082
0.6010200340011334,0.2182083916850388
0.6020200673355778,0.6932140230201185
0.6030201006700223,0.88732999144122
0.6040201340044667,0.8693324844352901
0.6050201673389113,0.40236145444214344
0.6060202006733557,0.14011206664144993
0.6070202340078003,0.2773430575616658
0.6080202673422447,0.2654518475756049
0.6090203006766892,0.29919717321172357
0.6100203340111336,0.13786237826570868
0.6110203673455782,0.3795431866310537
0.6120204006800226,0.4987766705453396
0.6130204340144672,0.597441575024277
0.6140204673489116,0.5010263589210808
0.6150205006833561,0.6761806681752205
0.6160205340178005,0.8953645927831531
0.6170205673522451,1.43786087539047
0.6180206006866895,1.2447090591304004
0.619020634021134,1.0936585539020598
0.6200206673555785,0.979567214846611
0.621020700690023,0.41039605578407645
0.6220207340244674,0.20792410196736455
0.623020767358912,0.17803538497537374
0.6240208006933564,0.1584309577010572
0.625020834027801,0.6951423273421824
0.6260208673622454,0.6906429505906999
0.6270209006966898,0.37761488230898976
0.6280209340311343,0.8992212014272809
0.6290209673655788,1.0110628521069884
0.6300210007000233,0.6392215020023286
0.6310210340344677,0.9622124759480357
0.6320210673689123,0.8355871587991714
0.6330211007033567,0.6970706316642463
0.6340211340378012,0.6289372122846544
0.6350211673722457,1.361692854668945
0.6360212007066902,1.5795912430621684
0.6370212340411346,1.8498752322047949
0.6380212673755792,1.0705189020372927
0.6390213007100236,0.44639106979593635
0.6400213340444681,0.17674984876066446
0.6410213673789126,0.46374580869451165
0.6420214007133571,1.9218652602285147
0.6430214340478015,2.7632487127557397
0.6440214673822461,1.6310126916505396
0.6450215007166905,0.5746233072131872
0.646021534051135,0.9339306792244315
0.6470215673855795,1.054771083407104
0.648021600720024,1.646439126227051
0.6490216340544684,1.5419893087819219
0.650021667388913,0.30369654996320605
0.6510217007233574,0.17032216768711805
0.652021734057802,0.7108901459723711
0.6530217673922464,0.30048270942643285
0.6540218007266909,1.2655990226194263
0.6550218340611353,1.8366984860040247
0.6560218673955798,2.7671053213998675
0.6570219007300243,3.5249289199709892
0.6580219340644687,2.4000847321003675
0.6590219673989133,1.180110864341259
0.6600220007333577,0.9085413389839232
0.6610220340678022,0.18928382685407996
0.6620220674022467,0.363795368000865
0.6630221007366912,0.3907916285097599
0.6640221340711356,0.8744746292941272
0.6650221674055802,0.9628552440553904
0.6660222007400246,0.9670332367531955
0.6670222340744691,1.2099995813332498
0.6680222674089136,1.413757071364671
0.6690223007433581,1.1421875460073352
0.6700223340778025,1.4253268972970545
0.6710223674122471,1.9771433174610138
0.6720224007466915,2.1956844739615917
0.673022434081136,1.9540036655962467
0.6740224674155805,1.8276997325010598
0.675022500750025,1.2366744577884674
0.6760225340844694,1.999318817164749
0.677022567418914,2.3528412762098014
0.6780226007533584,0.255488941911608
0.679022634087803,1.7852770374156535
0.6800226674222474,0.3403343320824206
0.6810227007566919,1.7688864506781101
0.6820227340911363,1.5413465406745672
0.6830227674255808,0.6212239949963987
0.6840228007600253,1.0669836774468422
0.6850228340944697,1.71971469046548
0.6860228674289143,2.9024080079980195
0.6870229007633587,5.323072700295597
0.6880229340978032,4.846781532745808
0.6890229674322477,2.3197387186810374
0.6900230007666922,0.21724423952400684
0.6910230341011366,0.1741787763312459
0.6920230674355812,0.3872564039193094
0.6930231007700256,0.480136395432055
0.6940231341044701,1.0303458953276277
0.6950231674389146,1.68854043725878
0.6960232007733591,3.1042371937073767
0.6970232341078035,3.3629513569176197
0.6980232674422481,2.6395158520899713
0.6990233007766925,2.4894294990226626
0.700023334111137,3.953976631630212
0.7010233674455815,3.285819184035063
0.702023400780026,0.2811996662057936
0.7030234341144704,3.242753720842302
0.704023467448915,2.664262424223125
0.7050235007833594,2.159046691842377
0.7060235341178039,1.5959818297997117
0.7070235674522484,1.924114948604256
0.7080236007866929,1.347551956307143
0.7090236341211373,2.246141770388931
0.7100236674555819,1.4635715996846557
0.7110237007900263,0.8175896517932415
0.7120237341244707,1.7894550301134586
0.7130237674589153,1.7672795304097235
0.7140238007933597,3.3449538499116898
0.7150238341278042,3.532642137259245
0.7160238674622487,3.0637428029440343
0.7170239007966932,0.4161809687502682
0.7180239341311376,3.6425554836168885
0.7190239674655822,2.380480304826051
0.7200240008000266,0.6658963784575462
0.7210240341344711,0.2760575213469565
0.7220240674689156,1.7672795304097235
0.7230241008033601,1.7884908779524267
0.7240241341378045,1.2026077480986714
0.7250241674722491,1.674399538896978
0.7260242008066935,2.8731620591133833
0.727024234141138,1.679541683755815
0.7280242674755825,1.1511862995103002
0.729024300810027,0.8699752525426447
0.7300243341444714,0.2844135067425668
0.731024367478916,0.19796119630336761
0.7320244008133604,1.544238997157663
0.7330244341478049,2.326166399754584
0.7340244674822494,1.6059447354637086
0.7350245008166939,1.898082840256393
0.7360245341511383,1.8884413186460733
0.7370245674855829,1.5548446709290147
0.7380246008200273,1.4269338175654411
0.7390246341544718,0.8776884698309004
0.7400246674889163,3.6033466290682554
0.7410247008233607,5.657633500173688
0.7420247341578052,4.573926471173763
0.7430247674922497,3.127376845572144
0.7440248008266942,2.736573836300522
0.7450248341611386,0.3660450563766062
0.7460248674955832,1.8903696229681373
0.7470249008300276,3.109379338566214
0.7480249341644721,2.201790770981461
0.7490249674989166,0.6912857186980546
0.7500250008333611,1.7518530958332121
0.7510250341678055,0.9075771868228912
0.7520250675022501,0.19539012387394905
0.7530251008366945,0.2477757246233523
0.754025134171139,1.1614705892279744
0.7550251675055835,1.0364521923474967
0.756025200840028,2.4932861076667905
0.7570252341744724,3.8498481982387602
0.758025267508917,1.932149549946189
0.7590253008433614,2.1343001197092235
0.7600253341778059,2.964113746304065
0.7610253675122504,3.4818634567782283
0.7620254008466949,0.6867863419465721
0.7630254341811393,1.113905749283731
0.7640254675155839,1.322484000120312
0.7650255008500283,0.18542721820995212
0.7660255341844728,1.1884668497368693
0.7670255675189173,2.3200601027347147
0.7680256008533617,1.6139793368056417
0.7690256341878062,1.3941526440903544
0.7700256675222507,2.953186688479036
0.7710257008566952,2.5948434686288238
0.7720257341911396,1.430790426209569
0.7730257675255842,1.619442865718156
0.7740258008600286,1.0425584893673658
0.7750258341944731,0.29566194862127304
0.7760258675289176,2.274102183058858
0.7770259008633621,0.7642398988828063
0.7780259341978065,1.180110864341259
0.7790259675322511,0.20149642089381814
0.7800260008666955,0.6938567911274731
0.78102603420114,0.34579786099493504
0.7820260675355845,1.5345974755473435
0.783026100870029,3.2948179375380278
0.7840261342044734,1.129010799806565
0.785026167538918,0.3486903174780309
0.7860262008733624,1.8466613916680217
0.7870262342078069,0.7195675154216588
0.7880262675422514,2.312346885446459
0.7890263008766959,2.9486873117275536
0.7900263342111403,2.4248313042335212
0.7910263675455849,0.28023551404476166
0.7920264008800293,0.29598333267495036
0.7930264342144738,1.7502461755648255
0.7940264675489183,2.4212960796430707
0.7950265008833628,1.2819896093569696
0.7960265342178072,1.3327682898379862
0.7970265675522517,0.8831519987434149
0.7980266008866962,0.6575403930619359
0.7990266342211406,1.7348197409883142
0.8000266675555852,1.1958586829714477
0.8010267008900296,0.997564721852541
0.8020267342244741,1.38868911517784
0.8030267675589186,0.3281217380426824
0.8040268008933631,0.6517554800957441
0.8050268342278075,0.5672314739786088
0.8060268675622521,0.35061862180009484
0.8070269008966965,0.5077754240483046
0.808026934231141,1.2289612405002117
0.8090269675655855,0.4142526644282043
0.81002700090003,1.789776414167136
0.8110270342344744,1.765672610141337
0.812027067568919,1.505994294770062
0.8130271009033634,1.420827520545572
0.8140271342378079,0.9516068021766841
0.8150271675722524,0.22335053654387593
0.8160272009066969,0.5196666340343654
0.8170272342411413,1.8084166892804205
0.8180272675755859,4.422875965945423
0.8190273009100303,4.579711384139955
0.8200273342444748,2.6054491424001753
0.8210273675789193,1.3424098114483058
0.8220274009133638,1.9318281658925116
0.8230274342478082,1.8984042243100703
0.8240274675822528,0.41650235280394554
0.8250275009166972,2.9653992825187743
0.8260275342511416,4.454050219152123
0.8270275675855862,4.6353108254261315
0.8280276009200306,4.630168680567294
0.8290276342544751,4.370168981142342
0.8300276675889195,0.8670827960595489
0.8310277009233641,2.597093157004565
0.8320277342578085,4.207548649981618
0.833027767592253,3.1318762223236263
0.8340278009266975,1.994498056359589
0.835027834261142,1.8518035365268588
0.8360278675955864,1.420827520545572
0.837027900930031,1.486068483442068
0.8380279342644754,0.47788670705631375
0.83902796759892,0.5402352134697139
0.8400280009333644,0.3573676869273186
0.8410280342678089,0.24231219571083784
0.8420280676022533,0.32908589020371437
0.8430281009366979,0.3342280350625515
0.8440281342711423,2.7812462197616696
0.8450281676055869,5.520402509253472
0.8460282009400313,3.8572400314733386
0.8470282342744758,2.351555739995092
0.8480282676089202,2.7989223427139223
0.8490283009433648,1.121940350625664
0.8500283342778092,2.7066851193085313
0.8510283676122538,2.3377362256869674
0.8520284009466982,2.8641633056104183
0.8530284342811427,1.007527627516538
0.8540284676155872,0.8275525574572384
0.8550285009500316,1.3211984639056027
0.8560285342844761,1.5918038371019065
0.8570285676189205,1.5178855047561228
0.8580286009533651,0.5071326559409499
0.8590286342878095,0.7112115300260484
0.860028667622254,0.5421635177917778
0.8610287009566985,0.7073549213819206
0.862028734291143,1.5014949180185795
0.8630287676255874,3.219935453031212
0.864028800960032,2.844880262389779
0.8650288342944764,1.711680089123547
0.866028867628921,1.9360061585903168
0.8670289009633654,0.38661363581195474
0.8680289342978099,1.3350179782137275
0.8690289676322543,2.8660916099324822
0.8700290009666989,3.239861264359206
0.8710290343011433,1.574127714149654
0.8720290676355879,0.8834733827970922
0.8730291009700323,0.7957355361431837
0.8740291343044768,2.183150495868176
0.8750291676389212,0.4929917575791478
0.8760292009733658,1.6686146259307861
0.8770292343078102,2.309454428963363
0.8780292676422548,1.2386027621105313
0.8790293009766992,0.2497040289454162
0.8800293343111437,0.963498012162745
0.8810293676455881,2.0108886430971324
0.8820294009800326,1.263349334243685
0.8830294343144771,1.0746968947350979
0.8840294676489215,1.3870821949094534
0.8850295009833661,0.6443636468611658
0.8860295343178105,0.6986775519326329
0.887029567652255,0.6192956906743348
0.8880296009866995,1.5137075120583177
0.889029634321144,2.314275189768523
0.8900296676555884,1.1544001400470734
0.891029700990033,0.271558144595474
0.8920297343244774,0.46985210571438074
0.893029767658922,0.47756532300263643
0.8940298009933664,0.2651304635219276
0.8950298343278109,0.23909835517406464
0.8960298676622553,0.19956811657175422
0.8970299009966999,0.16582279093563557
0.8980299343311443,0.3734368896111846
0.8990299676655888,0.9798885989002883
0.9000300010000333,0.8477997528389096
0.9010300343344778,0.9593200194649398
0.9020300676689222,0.3654022882692516
0.9030301010033668,0.1349699217826128
0.9040301343378112,0.2352417465299368
0.9050301676722557,0.24584742030128837
0.9060302010067002,0.22077946411445737
0.9070302343411447,0.23974112328141928
0.9080302676755891,0.26898707216605544
0.9090303010100337,0.6858221897855401
0.9100303343444781,0.6099755531176925
0.9110303676789225,0.2982330210506916
0.9120304010133671,0.20953102223575115
0.9130304343478115,0.22399330465123057
0.914030467682256,0.39914761390537024
0.9150305010167005,0.2570958621799946
0.916030534351145,0.246490188408643
0.9170305676855894,0.3875777879729867
0.918030601020034,0.6675032987259328
0.9190306343544784,0.4647099608555436
0.9200306676889229,0.1867127544246614
0.9210307010233674,0.27573613729327917
0.9220307343578119,0.4123243601061404
0.9230307676922563,0.20985240628942847
0.9240308010267009,0.18896244280040264
0.9250308343611453,0.18703413847833872
0.9260308676955898,0.22174361627548933
0.9270309010300343,0.18092784145846963
0.9280309343644788,0.7012486243620515
0.9290309676989232,0.6832511173561215
0.9300310010333678,0.18446306604892015
0.9310310343678122,0.1410762188024819
0.9320310677022567,0.18799829063937068
0.9330311010367012,0.34258402045816183
0.9340311343711457,0.5100251124240458
0.9350311677055901,0.3480475493706763
0.9360312010400347,0.28827011538669467
0.9370312343744791,0.2995185572654009
0.9380312677089236,0.3940054690465331
0.9390313010433681,0.21852977573871613
0.9400313343778125,0.1616447982378304
0.941031367712257,0.15264604473486543
0.9420314010467015,0.45763951167464256
0.943031434381146,0.6302227484993637
0.9440314677155904,0.4846357721835375
0.945031501050035,0.6389001179486513
0.9460315343844794,0.14236175501719117
0.9470315677189239,0.2670587678439915
0.9480316010533684,0.1928190514445305
0.9490316343878129,0.43674954818561673
0.9500316677222573,0.45121183060109615
0.9510317010567019,0.5890855896286666
0.9520317343911463,0.19249766739085317
0.9530317677255908,0.22495745681226254
0.9540318010600353,0.5161314094439149
0.9550318343944798,0.745921007823199
0.9560318677289242,0.2651304635219276
0.9570319010633688,0.22013669600710273
0.9580319343978132,0.7822374058887362
0.9590319677322577,1.0846598003990948
0.9600320010667022,0.7918789274990559
0.9610320344011467,0.49684836622327566
0.9620320677355911,0.31301668751984835
0.9630321010700357,0.1822133776731789
0.9640321344044801,0.24070527544245124
0.9650321677389246,0.1442900593392551
0.9660322010733691,0.21370901493355632
0.9670322344078136,0.2696298402734101
0.968032267742258,0.3072317745536566
0.9690323010767025,0.20021088467910886
0.970032334411147,0.24520465219393373
0.9710323677455914,0.19410458765923977
0.972032401080036,0.18253476172685623
0.9730324344144804,0.13464853772893548
0.9740324677489249,0.4335357076488435
0.9750325010833694,0.4062180630862713
0.9760325344178139,0.2603097027167678
0.9770325677522583,0.2542034056968987
0.9780326010867029,0.23652728274464607
0.9790326344211473,0.3734368896111846
0.9800326677555918,0.362831215839833
0.9810327010900363,0.27380783297121525
0.9820327344244808,0.24391911597922444
0.9830327677589252,0.23427759436890483
0.9840328010933698,0.22077946411445737
0.9850328344278142,0.2416694276034832
0.9860328677622587,0.19089074712246656
0.9870329010967032,0.22656437708064914
0.9880329344311477,0.3502972377464175
0.9890329677655921,0.2651304635219276
0.9900330011000367,0.1693580155260861
0.9910330344344811,0.22238638438284397
0.9920330677689256,0.2542034056968987
0.9930331011033701,0.2985544051043689
0.9940331344378146,0.17707123281434178
0.995033167772259,0.34322678856551647
0.9960332011067035,0.3451550928875804
0.997033234441148,0.26448769541457295
0.9980332677755924,0.1664655590429902
0.999033301110037,0.12950639287009835
1.0000333344444814,0.16871524741873145
1.0010333677789258,0.23106375383213162
1.0020334011133705,0.2072813338600099
1.003033434447815,0.12757808854803443
1.0040334677822593,0.43996338872238994
1.0050335011167038,0.5444132061675191
1.0060335344511484,0.6829297333024442
1.0070335677855928,0.34001294802874327
1.0080336011200373,0.1899265949614346
1.0090336344544817,0.21788700763136148
1.0100336677889263,0.39593377336859703
1.0110337011233708,0.6838938854634762
1.0120337344578152,1.024560982361436
1.0130337677922596,0.3589746071957052
1.0140338011267043,0.2088882541283965
1.0150338344611487,0.5267370832152665
1.0160338677955931,0.5032760472968221
1.0170339011300376,0.33487080316990614
1.0180339344644822,0.7896292391233146
1.0190339677989266,0.7652040510438383
1.020034001133371,0.5858717490918934
1.0210340344678155,0.3936840849928558
1.0220340678022601,0.23620589869096875
1.0230341011367046,0.2979116369970143
1.024034134471149,0.30048270942643285
1.0250341678055934,0.2149945511482656
1.0260342011400378,0.6948209432885051
1.0270342344744825,0.47917224327102304
1.028034267808927,0.2921267240308225
1.0290343011433714,0.13882653042674065
1.0300343344778158,0.40718221524730325
1.0310343678122604,0.2211008481681347
1.0320344011467049,0.5064898878335953
1.0330344344811493,0.4473552219569683
1.0340344678155937,0.6083686328493059
1.0350345011500384,0.5466628945432603
1.0360345344844828,0.35704630287364125
1.0370345678189272,0.5482698148116469
1.0380346011533716,0.16550140688195825
1.0390346344878163,0.14943220419809222
1.0400346678222607,0.12340009585022926
1.0410347011567052,0.21145932655781507
1.0420347344911496,0.18124922551214695
1.0430347678255942,0.2323492900468409
1.0440348011600387,0.28473489079624414
1.045034834494483,0.4193948092870414
1.0460348678289275,0.3249078975059092
1.0470349011633722,0.3702230490744114
1.0480349344978166,0.3075531586073339
1.049034967832261,0.329728658311069
1.0500350011667055,0.20920963818207383
1.05103503450115,0.330692810472101
1.0520350678355945,0.13304161746054888
1.053035101170039,0.3515827739611268
1.0540351345044834,0.2914839559234679
1.0550351678389278,0.755883913487196
1.0560352011733725,0.9371445197612047
1.057035234507817,0.8674041801132262
1.0580352678422613,0.40557529497891665
1.0590353011767057,0.16132341418415308
1.0600353345111504,0.1616447982378304
1.0610353678455948,0.7131398343481123
1.0620354011800393,0.4974911343306303
1.0630354345144837,0.18639137037098408
1.0640354678489283,0.3737582736648619
1.0650355011833728,0.513238952960819
1.0660355345178172,0.46535272896289825
1.0670355678522616,0.5990484952926636
1.0680356011867063,0.5518050394020975
1.0690356345211507,0.12789947260171175
1.0700356678555951,0.2632021591998637
1.0710357011900395,0.2670587678439915
1.0720357345244842,0.16035926202312112
1.0730357678589286,0.27862859377637506
1.074035801193373,0.25966693460941315
1.0750358345278175,0.2101737903431058
1.0760358678622621,0.20985240628942847
1.0770359011967066,0.22720714518800378
1.078035934531151,0.15103912446647882
1.0790359678655954,0.14171898690983653
1.08003600120004,0.19056936306878924
1.0810360345344845,0.1648586387746036
1.082036067868929,0.1616447982378304
1.0830361012033733,0.1584309577010572
1.0840361345378178,0.4017186863347888
1.0850361678722624,0.3985048457980156
1.0860362012067069,0.27252229675650597
1.0870362345411513,0.18446306604892015
1.0880362678755957,0.2587027824483812
1.0890363012100404,0.10700950911268592
1.0900363345444848,0.12597116827964783
1.0910363678789292,0.1696793995797634
1.0920364012133736,0.2728436808101833
1.0930364345478183,0.4158595846965909
1.0940364678822627,0.17289324011653662
1.0950365012167071,0.4145740484818816
1.0960365345511516,0.46374580869451165
1.0970365678855962,0.5707666985690594
1.0980366012200407,0.2921267240308225
1.099036634554485,0.4033256066031754
1.1000366678889295,0.30530347023159266
1.1010367012233742,0.513238952960819
1.1020367345578186,0.3589746071957052
1.103036767892263,0.3155877599492669
1.1040368012267074,0.2856990429572761
1.105036834561152,0.1696793995797634
1.1060368678955965,0.130149160977453
1.107036901230041,0.3843639474362135
1.1080369345644854,0.41200297605246305
1.10903696789893,0.20953102223575115
1.1100370012333745,0.23459897842258215
1.1110370345678189,0.23974112328141928
1.1120370679022633,0.2024605730548501
1.1130371012367077,0.16196618229150772
1.1140371345711524,0.26288077514618635
1.1150371679055968,0.19089074712246656
1.1160372012400412,0.32555066561326385
1.1170372345744857,0.4344998598098755
1.1180372679089303,0.7928430796600878
1.1190373012433747,0.17771400092169642
1.1200373345778192,0.10540258884429932
1.1210373679122636,0.3252292815595865
1.1220374012467083,0.17321462417021394
1.1230374345811527,0.3862922517582774
1.124037467915597,0.4990980545990169
1.1250375012500415,0.25356063758954406
1.1260375345844862,0.2699512243270874
1.1270375679189306,0.19828258035704494
1.128037601253375,0.15971649391576648
1.1290376345878195,0.17835676902905107
1.1300376679222641,0.3184802164323628
1.1310377012567085,0.33969156397506595
1.132037734591153,0.43514262791723013
1.1330377679255974,0.40268283849582076
1.134037801260042,0.9246105416677892
1.1350378345944865,1.1833247048780322
1.136037867928931,0.7443140875548124
1.1370379012633753,0.34740478126332164
1.1380379345978198,0.23459897842258215
1.1390379679322644,0.18317752983421087
1.1400380012667088,0.2198153119534254
1.1410380346011533,0.4804577794857323
1.1420380679355977,0.30176824564114213
1.1430381012700424,0.7079976894892752
1.1440381346044868,0.9156117881648242
1.1450381679389312,1.2331392331980169
1.1460382012733756,1.3009512685239315
1.1470382346078203,1.4523231578059494
1.1480382679422647,1.3459450360387564
1.1490383012767091,0.5100251124240458
1.1500383346111536,0.404932526871562
1.1510383679455982,0.23909835517406464
1.1520384012800426,0.9220394692383707
1.153038434614487,1.16918380651623
1.1540384679489315,0.8494066731072962
1.1550385012833762,1.1704693427309394
1.1560385346178206,0.48913514893501997
1.157038567952265,0.8240173328667879
1.1580386012867094,1.3292330652475357
1.159038634621154,0.8677255641669035
1.1600386679555985,0.3830784112215042
1.161038701290043,1.1836460889317095
1.1620387346244874,0.9422866646200418
1.163038767958932,0.3464406291022897
1.1640388012933764,0.22720714518800378
1.1650388346278209,0.7144253705628216
1.1660388679622653,1.3417670433409512
1.1670389012967097,0.7105687619186938
1.1680389346311544,1.004635171033442
1.1690389679655988,0.7186033632606268
1.1700390013000432,0.6816441970877349
1.1710390346344877,0.5138817210681736
1.1720390679689323,0.13850514637306333
1.1730391013033767,0.2497040289454162
1.1740391346378212,0.45731812762096524
1.1750391679722656,0.5701239304617047
1.1760392013067102,0.5588754885829985
1.1770392346411547,0.7819160218350589
1.178039267975599,0.6607542335987091
1.1790393013100435,0.20824548602104187
1.1800393346444882,0.2561317100189626
1.1810393679789326,0.32876450615003705
1.182039401313377,0.12211455963551998
1.1830394346478215,0.14525421150028706
1.1840394679822661,0.45892504788935184
1.1850395013167105,0.9657477005384862
1.186039534651155,1.012669772375375
1.1870395679855994,1.0174905331805348
1.188039601320044,1.0525213950313628
1.1890396346544885,1.3642639270983636
1.190039667988933,1.2762046963907778
1.1910397013233773,0.6883932622149587
1.192039734657822,0.2773430575616658
1.1930397679922664,0.28827011538669467
1.1940398013267108,0.9188256287015975
1.1950398346611553,0.7610260583460331
1.1960398679955997,1.4182564481161535
1.1970399013300443,1.3684419197961688
1.1980399346644888,0.3329424988478422
1.1990399679989332,0.40750359930098057
1.2000400013333776,1.5011735339649022
1.2010400346678223,1.3523727171123028
1.2020400680022667,0.8715821728110313
1.2030401013367111,0.46985210571438074
1.2040401346711556,0.6758592841215432
1.2050401680056002,1.1749687194824219
1.2060402013400446,0.23877697112038732
1.207040234674489,1.8437689351849258
1.2080402680089335,1.6326196119189262
1.2090403013433781,1.0991220828145742
1.2100403346778226,1.0335597358644009
1.211040368012267,1.619442865718156
1.2120404013467114,1.0856239525601268
1.213040434681156,1.0232754461467266
1.2140404680156005,0.25002541299909353
1.215040501350045,0.1915335152298212
1.2160405346844894,0.6167246182449162
1.217040568018934,2.34223560243845
1.2180406013533784,2.962185441982001
1.2190406346878229,1.3623356227762997
1.2200406680222673,0.6324724368751049
1.221040701356712,1.41986336838454
1.2220407346911564,1.9318281658925116
1.2230407680256008,1.1826819367706776
1.2240408013600452,0.3326211147941649
1.2250408346944897,0.8815450784750283
1.2260408680289343,0.47660117084160447
1.2270409013633787,0.2194939278997481
1.2280409346978232,1.1026573074050248
1.2290409680322676,0.5187024818733335
1.2300410013667122,0.5090609602630138
1.2310410347011567,1.465821288060397
1.232041068035601,0.4348212438635528
1.2330411013700455,0.20021088467910886
1.2340411347044902,0.771953116171062
1.2350411680389346,1.0820887279696763
1.236041201373379,1.922186644282192
1.2370412347078235,1.6891832053661346
1.238041268042268,1.954325049649924
1.2390413013767125,1.9237935645505786
1.240041334711157,1.9697514842264354
1.2410413680456014,0.6935354070737958
1.242041401380046,1.0030282507650554
1.2430414347144905,1.2405310664325953
1.244041468048935,1.7161794658750296
1.2450415013833793,2.049454729538411
1.246041534717824,1.782705964986235
1.2470415680522684,1.6171931773424149
1.2480416013867128,2.0889849681407213
1.2490416347211573,1.1868599294684827
1.250041668055602,1.6936825821176171
1.2510417013900463,1.8698010435327888
1.2520417347244908,0.45410428708419204
1.2530417680589352,1.5124219758436084
1.2540418013933796,0.5749446912668645
1.2550418347278243,0.9197897808626294
1.2560418680622687,0.2339562103152275
1.2570419013967131,0.4177878890186548
1.2580419347311576,0.39946899795904756
1.2590419680656022,0.4251797222532332
1.2600420014000466,1.1785039440728724
1.261042034734491,0.745921007823199
1.2620420680689355,1.6380831408314407
1.2630421014033801,1.1765756397508085
1.2640421347378246,0.7105687619186938
1.265042168072269,1.9607527307234704
1.2660422014067134,3.0978095126338303
1.267042234741158,1.7688864506781101
1.2680422680756025,2.2965990668162704
1.269042301410047,1.8884413186460733
1.2700423347444914,0.6228309152647853
1.271042368078936,0.8034487534314394
1.2720424014133804,0.25323925353586674
1.2730424347478249,0.7349939499981701
1.2740424680822693,0.40589667903259397
1.275042501416714,0.5987271112389863
1.2760425347511584,1.0361308082938194
1.2770425680856028,0.8307663979940116
1.2780426014200472,1.2501725880429149
1.2790426347544919,1.5416679247282445
1.2800426680889363,2.4711106079630554
1.2810427014233807,2.2937066103331745
1.2820427347578252,2.184757416136563
1.2830427680922696,2.3406286821700633
1.2840428014267142,1.9199369559064507
1.2850428347611587,2.6626555039547384
1.286042868095603,0.7366008702665567
1.2870429014300475,1.7168222339823842
1.2880429347644922,1.906117441598326
1.2890429680989366,2.4328659055754542
1.290043001433381,4.1840876140631735
1.2910430347678254,2.2634965092875063
1.29204306810227,1.9951408244669437
1.2930431014367145,1.3581576300784945
1.294043134771159,0.7626329786144197
1.2950431681056034,0.9172187084332108
1.296043201440048,1.147972458973527
1.2970432347744925,0.2166014714166522
1.2980432681089369,0.5032760472968221
1.2990433014433813,1.323448152281344
1.300043334777826,0.8224104125984013
1.3010433681122704,2.6555850547738373
1.3020434014467148,0.24134804354980588
1.3030434347811592,2.1982555463910103
1.304043468115604,4.020503130741417
1.3050435014500483,3.2867833361960948
1.3060435347844928,3.189725351985544
1.3070435681189372,0.7324228775687516
1.3080436014533818,1.6740781548433006
1.3090436347878263,4.572319550905377
1.3100436681222707,5.936273474711925
1.3110437014567151,3.6644095992669463
1.3120437347911595,0.28762734727934003
1.3130437681256042,1.794918559025973
1.3140438014600486,1.9009752967394888
1.315043834794493,2.476895520929247
1.3160438681289375,2.4701464558020234
1.3170439014633821,0.4396420046687126
1.3180439347978266,3.0891321431845427
1.319043968132271,3.284212263766676
1.3200440014667154,2.5193182160146534
1.32104403480116,1.4536086940206587
1.3220440681356045,1.2498512039892375
1.323044101470049,1.8421620149165392
1.3240441348044933,1.215141726192087
1.325044168138938,1.155042908154428
1.3260442014733824,1.4616432953625917
1.3270442348078269,1.2646348704583943
1.3280442681422713,2.1715806699357927
1.329044301476716,4.204013425391167
1.3300443348111604,3.946906182449311
1.3310443681456048,2.3055978203192353
1.3320444014800492,0.413931280374527
1.3330444348144939,0.6164032341912389
1.3340444681489383,2.286314777098596
1.3350445014833827,3.5843849699012935
1.3360445348178271,3.30413807509467
1.3370445681522716,1.5117792077362537
1.3380446014867162,0.4704948738217354
1.3390446348211607,0.6919284868054092
1.340044668155605,0.9612483237870038
1.3410447014900495,1.514028896111995
1.3420447348244942,1.4401105637662113
1.3430447681589386,3.650268700905144
1.344044801493383,3.5033961883746088
1.3450448348278274,3.453581660054624
1.346044868162272,1.086909488774836
1.3470449014967165,2.0883422000333667
1.348044934831161,3.105522729922086
1.3490449681656054,3.168514004442841
1.35004500150005,4.075138419866562
1.3510450348344945,0.5161314094439149
1.3520450681689389,0.6260447558015585
1.3530451015033833,0.3737582736648619
1.354045134837828,1.6126938005909324
1.3550451681722724,2.842630574014038
1.3560452015067168,1.7875267257913947
1.3570452348411612,0.2101737903431058
1.358045268175606,2.000604353379458
1.3590453015100503,3.183619054965675
1.3600453348444947,4.441837625112385
1.3610453681789392,2.996252151671797
1.3620454015133838,2.352198508102447
1.3630454348478283,1.2591713415458798
1.3640454681822727,0.7124970662407577
1.365045501516717,2.043348432518542
1.3660455348511615,3.460330725181848
1.3670455681856062,4.374989741947502
1.3680456015200506,3.4799351524561644
1.369045634854495,3.10745103424415
1.3700456681889395,1.3870821949094534
1.3710457015233841,1.4896037080325186
1.3720457348578285,2.581023954320699
1.373045768192273,2.9766477243974805
1.3740458015267174,1.9337564702145755
1.375045834861162,1.0229540620930493
1.3760458681956065,2.1892567928880453
1.377045901530051,2.1371925761923194
1.3780459348644953,1.9450049120932817
1.37904596819894,1.6702215461991727
1.3800460015333844,0.6755379000678658
1.3810460348678288,3.008143361657858
1.3820460682022733,1.89004823891446
1.383046101536718,0.15168189257383347
1.3840461348711623,0.7915575434453785
1.3850461682056068,0.6009767996147275
1.3860462015400512,0.4177878890186548
1.3870462348744959,1.3600859344005585
1.3880462682089403,2.5244603608734906
1.3890463015433847,1.2093568132258952
1.3900463348778291,0.49813390243798494
1.3910463682122738,0.7186033632606268
1.3920464015467182,0.28344935458153486
1.3930464348811626,1.0464150980114937
1.394046468215607,2.2696028063073754
1.3950465015500515,1.65254542324692
1.3960465348844961,0.6781089724972844
1.3970465682189406,0.7333870297297835
1.398046601553385,1.2003580597229302
1.3990466348878294,2.530888041947037
1.400046668222274,2.423545768018812
1.4010467015567185,1.1682196543551981
1.402046734891163,0.22688576113432646
1.4030467682256074,0.46181750437244773
1.404046801560052,0.6443636468611658
1.4050468348944964,0.19121213117614388
1.4060468682289409,0.49202760541811585
1.4070469015633853,0.2603097027167678
1.40804693489783,0.7269593486562371
1.4090469682322744,1.2569216531701386
1.4100470015667188,1.6451535900123417
1.4110470349011632,1.0926944017410278
1.4120470682356079,0.3361563393846154
1.4130471015700523,0.8153399634175003
1.4140471349044967,0.9506426500156522
1.4150471682389412,0.5810509882867336
1.4160472015733858,0.2937336442992091
1.4170472349078302,0.31590914400294423
1.4180472682422747,0.49042068514972925
1.419047301576719,0.2577386302873492
1.4200473349111637,0.6552907046861947
1.4210473682456082,0.7552411453798413
1.4220474015800526,0.4344998598098755
1.423047434914497,0.27252229675650597
1.4240474682489415,0.312695303466171
1.4250475015833861,0.23974112328141928
1.4260475349178305,0.25677447812631726
1.427047568252275,1.5696283373981714
1.4280476015867194,1.8945476156659424
1.429047634921164,1.4693565126508474
1.4300476682556085,0.20824548602104187
1.431047701590053,0.6890360303223133
1.4320477349244973,0.34419094072654843
1.433047768258942,0.163251718506217
1.4340478015933864,0.279592745937407
1.4350478349278308,0.2570958621799946
1.4360478682622753,1.3543010214343667
1.43704790159672,0.962533860001713
1.4380479349311643,0.43257155548781157
1.4390479682656088,0.8092336663976312
1.4400480016000532,0.7738814204931259
1.4410480349344978,0.16389448661357164
1.4420480682689423,0.42453695414587855
1.4430481016033867,0.21788700763136148
1.4440481349378311,0.19185489928349853
1.4450481682722758,0.47435148246586323
1.4460482016067202,0.18478445010259748
1.4470482349411646,0.2837707386352122
1.448048268275609,0.49042068514972925
1.4490483016100537,0.7105687619186938
1.4500483349444981,0.9336092951707542
1.4510483682789426,1.1887882337905467
1.452048401613387,0.26770153595134616
1.4530484349478314,0.3294072742573917
1.454048468282276,0.18703413847833872
1.4550485016167205,0.34901170153170824
1.456048534951165,0.13464853772893548
1.4570485682856094,0.15585988527163863
1.458048601620054,0.3358349553309381
1.4590486349544984,0.43225017143413424
1.4600486682889429,0.42582249036058784
1.4610487016233873,0.16678694309666753
1.462048734957832,0.17000078363344073
1.4630487682922764,0.25516755785793066
1.4640488016267208,0.4406061568297446
1.4650488349611652,0.2702726083807647
1.4660488682956099,0.5669100899249315
1.4670489016300543,0.15939510986208916
1.4680489349644987,0.31462360778823495
1.4690489682989432,0.2950191805139184
1.4700490016333878,0.6276516760699451
1.4710490349678322,0.8188751880079508
1.4720490683022767,0.39143439661711454
1.473049101636721,0.35833183908835053
1.4740491349711657,1.191037922166288
1.4750491683056102,1.0766251990571618
1.4760492016400546,0.4158595846965909
1.477049234974499,0.20953102223575115
1.4780492683089437,0.46535272896289825
1.479049301643388,0.7732386523857713
1.4800493349778325,0.753955609165132
1.481049368312277,0.6160818501375616
1.4820494016467214,0.5434490540064871
1.483049434981166,0.43996338872238994
1.4840494683156105,0.3184802164323628
1.485049501650055,0.6112610893324018
1.4860495349844993,0.21242347871884704
1.487049568318944,0.6408284222707152
1.4880496016533884,0.6099755531176925
1.4890496349878328,0.8532632817514241
1.4900496683222773,0.5434490540064871
1.491049701656722,0.7648826669901609
1.4920497349911663,0.17642846470698714
1.4930497683256108,0.3236223612911999
1.4940498016600552,0.5244873948395252
1.4950498349944998,0.7224599719047546
1.4960498683289443,0.5460201264359057
1.4970499016633887,0.40718221524730325
1.4980499349978331,0.14075483474880457
1.4990499683322778,0.47627978678792715
1.5000500016667222,0.43546401197090745
1.5010500350011666,0.1851058341562748
1.502050068335611,0.9702470772899687
1.5030501016700557,0.8497280571609735
1.5040501350045001,0.2493826448917389
1.5050501683389446,0.21628008736297488
1.506050201673389,0.49845528649166226
1.5070502350078336,0.6478988714516163
1.508050268342278,1.3096286379732192
1.5090503016767225,1.307378949597478
1.510050335011167,1.0480220182798803
1.5110503683456113,0.49042068514972925
1.512050401680056,0.18478445010259748
1.5130504350145004,0.4737087143585086
1.5140504683489449,0.5518050394020975
1.5150505016833893,0.3952910052612424
1.516050535017834,0.2638449273072183
1.5170505683522784,0.1773926168680191
1.5180506016867228,0.28505627484992146
1.5190506350211672,0.21692285547032952
1.5200506683556119,0.2937336442992091
1.5210507016900563,0.19410458765923977
1.5220507350245007,0.24745434056967497
1.5230507683589452,0.3091600788757205
1.5240508016933898,0.21852977573871613
1.5250508350278342,0.32426512939855456
1.5260508683622787,0.4344998598098755
1.527050901696723,0.4663168811239302
1.5280509350311677,0.16357310255989432
1.5290509683656122,0.20503164548426867
1.5300510017000566,0.13111331313848495
1.531051035034501,0.2963047167286277
1.5320510683689457,0.3075531586073339
1.53305110170339,0.42935771495103836
1.5340511350378345,0.18639137037098408
1.535051168372279,0.17192908795550466
1.5360512017067234,0.23781281895935535
1.537051235041168,0.22881406545639038
1.5380512683756125,0.20181780494749546
1.5390513017100569,0.31590914400294423
1.5400513350445013,0.17996368929743767
1.541051368378946,0.13304161746054888
1.5420514017133904,0.23138513788580894
1.5430514350478348,0.23492036247625947
1.5440514683822792,0.296626100782305
1.545051501716724,0.22624299302697182
1.5460515350511683,0.18928382685407996
1.5470515683856128,0.14461144339293242
1.5480516017200572,0.16035926202312112
1.5490516350545018,0.18446306604892015
1.5500516683889463,0.34901170153170824
1.5510517017233907,0.6430781106464565
1.5520517350578351,0.6067617125809193
1.5530517683922798,0.23845558706671
1.5540518017267242,0.1616447982378304
1.5550518350611686,0.2680229200050235
1.556051868395613,0.17353600822389126
1.5570519017300577,0.13754099421203136
1.5580519350645021,0.44960491033270955
1.5590519683989466,0.4913848373107612
1.560052001733391,0.6074044806882739
1.5610520350678356,0.30048270942643285
1.56205206840228,0.25966693460941315
1.5630521017367245,0.1709649357944727
1.564052135071169,0.1571454214863479
1.5650521684056133,0.3766507301479578
1.566052201740058,0.28152105025947094
1.5670522350745024,0.35061862180009484
1.5680522684089468,0.7231027400121093
1.5690523017433913,0.4454269176349044
1.570052335077836,0.24199081165716052
1.5710523684122804,0.4206803455017507
1.5720524017467248,0.17867815308272839
1.5730524350811692,0.1317560812458396
1.5740524684156139,0.1397906825877726
1.5750525017500583,0.3107669991441071
1.5760525350845027,0.31655191211029887
1.5770525684189471,0.4078249833546579
1.5780526017533918,0.2905198037624359
1.5790526350878362,0.32747896993532777
1.5800526684222806,0.3573676869273186
1.581052701756725,0.28762734727934003
1.5820527350911697,0.13561268988996744
1.5830527684256142,0.14043345069512725
1.5840528017600586,0.32908589020371437
1.585052835094503,0.46342442464083433
1.5860528684289477,0.15200327662751079
1.587052901763392,0.20053226873278618
1.5880529350978365,0.2712367605417967
1.589052968432281,0.22784991329535842
1.5900530017667256,0.19089074712246656
1.59105303510117,0.1680724793113768
1.5920530684356144,0.2779858256690204
1.5930531017700589,0.4251797222532332
1.5940531351045033,0.4364281641319394
1.595053168438948,0.23652728274464607
1.5960532017733924,0.14975358825176954
1.5970532351078368,0.14204037096351385
1.5980532684422812,0.22206500032916665
1.5990533017767259,0.363795368000865
1.6000533351111703,0.5264156991615891
1.6010533684456147,0.572373618837446
1.6020534017800592,0.39336270093917847
1.6030534351145038,0.1931404354982078
1.6040534684489482,0.21210209466516972
1.6050535017833927,0.19249766739085317
1.606053535117837,0.1253284001722932
1.6070535684522818,0.18478445010259748
1.6080536017867262,0.17353600822389126
1.6090536351211706,0.21788700763136148
1.610053668455615,0.35543938260525465
1.6110537017900597,0.21852977573871613
1.6120537351245041,0.3339066510088742
1.6130537684589485,0.3236223612911999
1.614053801793393,0.2461688043549657
1.6150538351278376,0.17932092119008303
1.616053868462282,0.17707123281434178
1.6170539017967265,0.3236223612911999
1.618053935131171,0.6006554155610502
1.6190539684656156,0.30369654996320605
1.62005400180006,0.13721961015835404
1.6210540351345044,0.2085668700747192
1.6220540684689488,0.17128631984815001
1.6230541018033933,0.41039605578407645
1.624054135137838,0.43867785250768065
1.6250541684722823,0.17385739227756858
1.6260542018067268,0.27059399243444204
1.6270542351411712,0.33326388290151954
1.6280542684756159,0.455068439245224
1.6290543018100603,0.5357358367182314
1.6300543351445047,0.25677447812631726
1.6310543684789491,0.10154598020017147
1.6320544018133938,0.20181780494749546
1.6330544351478382,0.4547470551915467
1.6340544684822826,0.34451232478022575
1.635054501816727,0.5235232426784933
1.6360545351511717,0.2194939278997481
1.6370545684856161,0.2731650648638606
1.6380546018200606,0.34740478126332164
1.639054635154505,0.16550140688195825
1.6400546684889497,0.17160770390182734
1.641054701823394,0.14236175501719117
1.6420547351578385,0.25034679705277085
1.643054768492283,0.3830784112215042
1.6440548018267276,0.4708162578754127
1.645054835161172,0.20021088467910886
1.6460548684956164,0.1253284001722932
1.6470549018300609,0.1584309577010572
1.6480549351645055,0.11729379883036017
1.64905496849895,0.16035926202312112
1.6500550018333944,0.12629255233332515
1.6510550351678388,0.3181588323786855
1.6520550685022832,0.379864570684731
1.6530551018367279,0.13079192908480763
1.6540551351711723,0.12950639287009835
1.6550551685056167,0.26609461568295956
1.6560552018400612,0.11472272640094161
1.6570552351745058,0.1899265949614346
1.6580552685089502,0.2432763478718698
1.6590553018433947,0.23202790599316359
1.660055335177839,0.35993875935673714
1.6610553685122837,0.14621836366131902
1.6620554018467282,0.11472272640094161
1.6630554351811726,0.1397906825877726
1.664055468515617,0.1413976028561592
1.6650555018500617,0.10636674100533128
1.666055535184506,0.17771400092169642
1.6670555685189505,0.3059462383389473
1.668055601853395,0.4081463674083352
1.6690556351878396,0.37890041852369905
1.670055668522284,0.138183762319386
1.6710557018567285,0.24841849273070693
1.672055735191173,0.22527884086593986
1.6730557685256175,0.2776644416153431
1.674055801860062,0.5035974313504994
1.6750558351945064,0.33037142641842365
1.6760558685289508,0.21370901493355632
1.6770559018633955,0.26738015189766884
1.67805593519784,0.46824518544599414
1.6790559685322843,0.6765020522288978
1.6800560018667288,0.5730163869448006
1.6810560352011732,0.5505195031873882
1.6820560685356178,0.22335053654387593
1.6830561018700623,0.8654758757911623
1.6840561352045067,0.6540051684714854
1.6850561685389511,0.7340297978371382
1.6860562018733958,0.5215949383564293
1.6870562352078402,0.3515827739611268
1.6880562685422846,0.31655191211029887
1.689056301876729,0.15489573311060667
1.6900563352111737,0.29405502835288644
1.6910563685456181,0.1568240374326706
1.6920564018800626,0.4737087143585086
1.693056435214507,0.6842152695171535
1.6940564685489516,0.21113794250413775
1.695056501883396,0.24070527544245124
1.6960565352178405,0.30241101374849677
1.697056568552285,0.36990166502073407
1.6980566018867296,0.2477757246233523
1.699056635221174,0.18864105874672532
1.7000566685556184,0.23909835517406464
1.7010567018900629,0.21724423952400684
1.7020567352245075,0.5395924453623593
1.703056768558952,0.1834989138878882
1.7040568018933964,0.16035926202312112
1.7050568352278408,0.221422232221812
1.7060568685622854,0.12147179152816534
1.7070569018967299,0.13207746529951692
1.7080569352311743,0.11986487125977874
1.7090569685656187,0.14686113176867366
1.7100570019000632,0.2072813338600099
1.7110570352345078,0.14396867528557777
1.7120570685689522,0.10797366127371788
1.7130571019033967,0.31462360778823495
1.714057135237841,0.180285073351115
1.7150571685722857,0.10090321209281683
1.7160572019067302,0.20053226873278618
1.7170572352411746,0.2728436808101833
1.718057268575619,0.30980284698307514
1.7190573019100637,0.21435178304091096
1.720057335244508,0.20374610926955938
1.7210573685789525,0.196354276034981
1.722057401913397,0.18317752983421087
1.7230574352478416,0.2853776589035988
1.724057468582286,0.5055257356725633
1.7250575019167305,0.4521759827621281
1.726057535251175,0.4798150113783777
1.7270575685856195,0.5019905110821128
1.728057601920064,0.14204037096351385
1.7290576352545084,0.18799829063937068
1.7300576685889528,0.3920771647244692
1.7310577019233975,0.1773926168680191
1.732057735257842,0.11407995829358697
1.7330577685922863,0.10925919748842716
1.7340578019267308,0.16260895039886236
1.7350578352611754,0.3769721142016351
1.7360578685956198,0.13786237826570868
1.7370579019300643,0.16903663147240877
1.7380579352645087,0.1992467325180769
1.7390579685989531,0.21563731925562024
1.7400580019333978,0.12436424801126122
1.7410580352678422,0.20438887737691402
1.7420580686022866,0.24745434056967497
1.743058101936731,0.18124922551214695
1.7440581352711757,0.25323925353586674
1.7450581686056201,0.13207746529951692
1.7460582019400646,0.21756562357768416
1.747058235274509,0.2069599498063326
1.7480582686089536,0.2198153119534254
1.749058301943398,0.16518002282828093
1.7500583352778425,0.38532809959724545
1.751058368612287,0.797985224518925
1.7520584019467316,1.5098509034141898
1.753058435281176,1.3343752101063728
1.7540584686156204,1.1074780682101846
1.7550585019500649,0.8368726950138807
1.7560585352845095,0.288591499440372
1.757058568618954,0.4515332146547735
1.7580586019533984,1.0100986999459565
1.7590586352878428,1.0689119817689061
1.7600586686222874,0.8847589190118015
1.7610587019567319,0.7491348483599722
1.7620587352911763,0.47660117084160447
1.7630587686256207,0.4708162578754127
1.7640588019600651,1.873979036230594
1.7650588352945098,2.6870806920342147
1.7660588686289542,2.1204806054010987
1.7670589019633987,1.5905183008871973
1.768058935297843,0.7854512464255095
1.7690589686322877,0.5524478075094521
1.7700590019667322,0.6620397698134184
1.7710590353011766,0.36154567962512374
1.772059068635621,0.14493282744660974
1.7730591019700657,0.36508090421557426
1.77405913530451,0.46181750437244773
1.7750591686389545,0.6048334082588553
1.776059201973399,0.7443140875548124
1.7770592353078436,1.1672555021941662
1.778059268642288,1.8437689351849258
1.7790593019767325,1.9276501731947064
1.7800593353111769,1.4651785199530423
1.7810593686456215,1.5426320768892765
1.782059401980066,1.7769210520200431
1.7830594353145104,1.681469988077879
1.7840594686489548,1.8267355803400278
1.7850595019833995,1.2559575010091066
1.786059535317844,0.5183810978196561
1.7870595686522883,0.14718251582235098
1.7880596019867327,0.2008536527864635
1.7890596353211774,0.922360853292048
1.7900596686556218,1.8839419418945909
1.7910597019900663,2.6748680979944766
1.7920597353245107,1.0184546853415668
1.793059768658955,0.23170652193948627
1.7940598019933998,0.9930653451010585
1.7950598353278442,1.1376881692558527
1.7960598686622886,0.6292585963383317
1.797059901996733,1.2627065661363304
1.7980599353311777,0.9040419622324407
1.7990599686656221,0.1475038998760283
1.8000600020000666,0.7738814204931259
1.801060035334511,0.506168503779918
1.8020600686689556,1.5326691712252796
1.8030601020034,2.1285152067430317
1.8040601353378445,2.3978350437246263
1.805060168672289,1.6920756618492305
1.8060602020067336,1.528169794473797
1.807060235341178,0.3988262298516929
1.8080602686756224,0.6221881471574306
1.8090603020100668,0.21531593520194292
1.8100603353445115,0.6900001824833453
1.811060368678956,0.4502476784400642
1.8120604020134004,0.30980284698307514
1.8130604353478448,0.25516755785793066
1.8140604686822894,0.5289867715910077
1.8150605020167339,1.170147958677262
1.8160605353511783,0.9172187084332108
1.8170605686856227,1.8566242973320186
1.8180606020200674,2.7198618655093014
1.8190606353545118,1.6117296484299004
1.8200606686889562,0.7025341605767608
1.8210607020234006,0.839122383389622
1.822060735357845,0.2937336442992091
1.8230607686922897,0.438999236561358
1.8240608020267342,1.1004076190292835
1.8250608353611786,2.9294042685069144
1.826060868695623,1.1817177846096456
1.8270609020300677,0.1947473557665944
1.828060935364512,0.7494562324136496
1.8290609686989565,0.7253524283878505
1.830061002033401,1.5047087585553527
1.8310610353678456,0.7115329140797257
1.83206106870229,0.5113106486387551
1.8330611020367344,1.262385182082653
1.8340611353711789,0.9471074254252017
1.8350611687056235,1.430790426209569
1.836061202040068,3.703297069761902
1.8370612353745124,4.635632209479809
1.8380612687089568,3.49246913054958
1.8390613020434015,0.4454269176349044
1.8400613353778459,1.094944090116769
1.8410613687122903,0.9172187084332108
1.8420614020467347,2.0568465627729893
1.8430614353811794,3.625843512825668
1.8440614687156238,2.3640897180885077
1.8450615020500682,1.1817177846096456
1.8460615353845127,2.087699431926012
1.8470615687189573,0.3956123893149197
1.8480616020534018,0.6880718781612813
1.8490616353878462,1.4931389326229692
1.8500616687222906,2.82559721916914
1.851061702056735,2.9551149928011
1.8520617353911797,0.9737823018804193
1.8530617687256241,1.1502221473492682
1.8540618020600685,1.1907165381126106
1.855061835394513,2.01956601254642
1.8560618687289576,3.5310352169908583
1.857061902063402,2.2474273066036403
1.8580619353978465,1.7672795304097235
1.859061968732291,0.9499998819082975
1.8600620020667356,1.3346965941600502
1.86106203540118,0.5357358367182314
1.8620620687356244,0.7304945732466877
1.8630621020700688,1.220283871050924
1.8640621354045135,0.28762734727934003
1.865062168738958,0.6813228130340576
1.8660622020734023,1.0223112939856946
1.8670622354078468,2.5996642294339836
1.8680622687422914,1.8125946819782257
1.8690623020767358,1.7611732333898544
1.8700623354111803,2.542136483825743
1.8710623687456247,2.0340282949618995
1.8720624020800694,0.27252229675650597
1.8730624354145138,1.8958331518806517
1.8740624687489582,1.196180067025125
1.8750625020834026,1.0811245758086443
1.8760625354178473,1.7666367623023689
1.8770625687522917,1.1826819367706776
1.8780626020867361,2.4945716438814998
1.8790626354211806,1.012669772375375
1.880062668755625,0.546341510489583
1.8810627020900696,0.714746754616499
1.882062735424514,0.9271816140972078
1.8830627687589585,1.2999871163628995
1.884062802093403,2.717290793079883
1.8850628354278476,1.0100986999459565
1.886062868762292,0.36990166502073407
1.8870629020967364,0.6173673863522708
1.8880629354311809,1.829949420876801
1.8890629687656255,1.331482753623277
1.89006300210007,2.2834223206155
1.8910630354345144,2.00638926634565
1.8920630687689588,0.3753651939332485
1.8930631021034035,1.511136439628899
1.8940631354378479,2.6880448441952467
1.8950631687722923,0.7391719426959753
1.8960632021067367,2.736573836300522
1.8970632354411814,1.6596158724278212
1.8980632687756258,1.7258209874853492
1.8990633021100702,0.9898515045642853
1.9000633354445147,1.1376881692558527
1.9010633687789593,1.636476220563054
1.9020634021134037,4.100206376053393
1.9030634354478482,2.4322231374680996
1.9040634687822926,2.3428783705458045
1.9050635021167373,2.3229525592178106
1.9060635354511817,1.196180067025125
1.907063568785626,0.8558343541808426
1.9080636021200705,2.2577115963213146
1.909063635454515,2.0388490557670593
1.9100636687889596,0.27380783297121525
1.911063702123404,0.6350435093045235
1.9120637354578485,2.6649051923304796
1.913063768792293,2.0038181939162314
1.9140638021267375,0.3265148177742958
1.915063835461182,1.305450645275414
1.9160638687956264,1.181075016502291
1.9170639021300708,2.6096271350979805
1.9180639354645155,2.178972503170371
1.91906396879896,1.5779843227937818
1.9200640021334043,0.41007467173039913
1.9210640354678488,3.0897749112918973
1.9220640688022934,2.8503437913022935
1.9230641021367378,2.718254945240915
1.9240641354711823,1.2324964650906622
1.9250641688056267,0.4569967435672879
1.9260642021400713,0.6919284868054092
1.9270642354745158,0.881223694421351
1.9280642688089602,2.265103429555893
1.9290643021434046,4.955087958835065
1.9300643354778493,3.510788021609187
1.9310643688122937,1.0470578661188483
1.9320644021467381,0.5836220607161522
1.9330644354811826,0.46856656949967146
1.9340644688156272,0.5977629590779543
1.9350645021500716,0.7443140875548124
1.936064535484516,0.30498208617791533
1.9370645688189605,0.4412489249370992
1.938064602153405,1.6490101986564696
1.9390646354878496,2.2413210095837712
1.940064668822294,2.6298743304796517
1.9410647021567384,2.582952258642763
1.9420647354911829,1.2315323129296303
1.9430647688256275,1.0701975179836154
1.944064802160072,0.956427562981844
1.9450648354945164,0.6131893936544657
1.9460648688289608,1.3273047609254718
1.9470649021634054,2.294349378440529
1.9480649354978499,0.42582249036058784
1.9490649688322943,2.708613423630595
1.9500650021667387,3.7981053655967116
1.9510650355011834,3.8800582992844284
1.9520650688356278,3.4439401384443045
1.9530651021700722,3.545818883460015
1.9540651355045167,2.6886876123026013
1.9550651688389613,1.9199369559064507
1.9560652021734057,4.019860362634063
1.9570652355078502,1.0862667206674814
1.9580652688422946,1.8013462400995195
1.9590653021767392,0.23909835517406464
1.9600653355111837,0.4830288519151509
1.961065368845628,1.897118688095361
1.9620654021800725,2.6456221491098404
1.963065435514517,2.544064788147807
1.9640654688489616,0.6427567265927792
1.965065502183406,0.20631718169897795
1.9660655355178505,0.9320023749023676
1.9670655688522949,0.938430055975914
1.9680656021867395,1.007527627516538
1.969065635521184,0.2728436808101833
1.9700656688556284,1.8366984860040247
1.9710657021900728,2.2876003133133054
1.9720657355245175,0.8343016225844622
1.973065768858962,0.695785095449537
1.9740658021934063,0.864190339576453
1.9750658355278508,1.3973664846271276
1.9760658688622954,0.547305662650615
1.9770659021967398,1.3147707828320563
1.9780659355311843,1.1605064370669425
1.9790659688656287,1.3356607463210821
1.9800660022000733,1.3665136154741049
1.9810660355345178,0.5743019231595099
1.9820660688689622,0.1571454214863479
1.9830661022034066,0.5694811623543501
1.9840661355378513,2.0619887076318264
1.9850661688722957,1.0489861704409122
1.9860662022067401,1.266241790726781
1.9870662355411846,0.20342472521588206
1.9880662688756292,0.7108901459723711
1.9890663022100736,0.36347398394718766
1.990066335544518,0.4518545987084508
1.9910663688789625,0.8754387814551592
1.992066402213407,0.8089122823439538
1.9930664355478516,1.3478733403608203
1.994066468882296,0.3390487958677113
1.9950665022167404,1.4005803251639009
1.9960665355511849,1.7923474865965545
1.9970665688856295,1.1418661619536579
1.998066602220074,1.431754578370601
1.9990666355545184,0.19571150792762637
2.000066668888963,0.7182819792069495
2.001066702223407,0.6986775519326329
2.0020667355578516,0.4193948092870414
2.0030667688922965,0.27220091270282865
2.004066802226741,0.8927935203537345
2.0050668355611854,0.9040419622324407
2.00606686889563,1.8023103922605515
2.0070669022300742,1.3970451005734503
2.0080669355645187,2.0089603387750685
2.009066968898963,2.4229029999114573
2.0100670022334075,0.7391719426959753
2.0110670355678524,0.2792713618837297
2.012067068902297,0.5135603370144963
2.0130671022367412,0.7324228775687516
2.0140671355711857,2.367624942678958
2.01506716890563,2.276994639541954
2.0160672022400745,1.6583303362131119
2.017067235574519,1.4635715996846557
2.0180672689089634,0.9509640340693295
2.0190673022434082,0.7860940145328641
2.0200673355778527,0.797021072357893
2.021067368912297,0.15971649391576648
2.0220674022467415,0.588442821521312
2.023067435581186,0.43867785250768065
2.0240674689156304,0.4062180630862713
2.025067502250075,0.7552411453798413
2.0260675355845192,0.7581336018629372
2.0270675689189637,0.9181828605942428
2.0280676022534085,0.6903215665370226
2.029067635587853,0.40750359930098057
2.0300676689222974,0.17064355174079537
2.031067702256742,0.46824518544599414
2.0320677355911863,0.2542034056968987
2.0330677689256307,0.16068064607679844
2.034067802260075,0.8388009993359447
2.0350678355945195,0.4727445621974766
2.0360678689289644,0.8326947023160756
2.037067902263409,0.49363452568650246
2.0380679355978533,0.5170955616049469
2.0390679689322977,0.6016195677220821
2.040068002266742,0.2509895651601255
2.0410680356011865,0.3763293460942805
2.042068068935631,0.37118720123544335
2.0430681022700754,0.5100251124240458
2.0440681356045203,0.5428062858991325
2.0450681689389647,0.25806001434102654
2.046068202273409,0.2696298402734101
2.0470682356078536,0.22399330465123057
2.048068268942298,0.36668782448396087
2.0490683022767424,0.5190238659270108
2.050068335611187,0.4833502359688282
2.0510683689456313,0.5347716845571995
2.0520684022800757,0.396897925529629
2.0530684356145206,0.2506681811064482
2.054068468948965,0.14557559555396438
2.0550685022834094,0.3596173753030598
2.056068535617854,0.8108405866660178
2.0570685689522983,0.9172187084332108
2.0580686022867427,0.7690606596879661
2.059068635621187,0.606440328527242
2.0600686689556316,0.2211008481681347
2.0610687022900764,0.31783744832500815
2.062068735624521,0.4078249833546579
2.0630687689589653,0.36636644043028355
2.0640688022934097,0.4862426924519241
2.065068835627854,0.3895060922950506
2.0660688689622986,0.4332143235951662
2.067068902296743,0.3043393180705607
2.0680689356311874,0.1944259717129171
2.0690689689656323,0.2985544051043689
2.0700690023000767,0.25356063758954406
2.071069035634521,0.22077946411445737
2.0720690689689656,0.31944436859339476
2.07306910230341,0.1413976028561592
2.0740691356378544,0.15103912446647882
2.075069168972299,0.1304705450311303
2.0760692023067433,0.2821638183668256
2.0770692356411877,0.2914839559234679
2.0780692689756326,0.18639137037098408
2.079069302310077,0.2307423697784543
2.0800693356445215,0.8146971953101456
2.081069368978966,1.2225335594266653
2.0820694023134103,1.1788253281265497
2.0830694356478547,1.0213471418246627
2.084069468982299,0.3355135712772608
2.0850695023167436,0.330692810472101
2.0860695356511885,0.5154886413365602
2.087069568985633,0.6472561033442616
2.0880696023200773,0.655612088739872
2.0890696356545218,0.5273798513226211
2.090069668988966,0.3454764769412577
2.0910697023234106,0.21242347871884704
2.092069735657855,0.31655191211029887
2.0930697689922995,0.1915335152298212
2.0940698023267443,0.39946899795904756
2.0950698356611888,0.17321462417021394
2.096069868995633,0.1442900593392551
2.0970699023300776,0.15618126932531595
2.098069935664522,0.16357310255989432
2.0990699689989665,0.3596173753030598
2.100070002333411,0.2590241665020585
2.1010700356678553,0.4107174398377538
2.1020700690023,0.7186033632606268
2.1030701023367446,0.5768729955889285
2.104070135671189,0.3043393180705607
2.1050701690056335,0.17192908795550466
2.106070202340078,0.14814666798338294
2.1070702356745223,0.4489621422253549
2.1080702690089668,0.4659954970702529
2.109070302343411,0.3075531586073339
2.1100703356778556,0.3621884477324784
2.1110703690123005,0.44799799006432295
2.112070402346745,0.3233009772375226
2.1130704356811894,0.3030537818558514
2.114070469015634,0.4868854605592787
2.115070502350078,0.16132341418415308
2.1160705356845226,0.7446354716084898
2.117070569018967,0.871260788757354
2.1180706023534115,0.9037205781787634
2.1190706356878564,1.0701975179836154
2.120070669022301,0.7697034277953207
2.121070702356745,0.13432715367525816
2.1220707356911896,0.3576890709809959
2.123070769025634,0.58747866936028
2.1240708023600785,0.6311869006603956
2.125070835694523,0.5511622712947428
2.1260708690289674,0.2336348262615502
2.1270709023634122,0.23845558706671
2.1280709356978567,0.21081655845046043
2.129070969032301,0.1317560812458396
2.1300710023667455,0.1851058341562748
2.13107103570119,0.12789947260171175
2.1320710690356344,0.36347398394718766
2.133071102370079,0.42325141793116927
2.1340711357045232,0.446069685742259
2.1350711690389677,0.5106678805314004
2.1360712023734125,0.5906925098970532
2.137071235707857,0.1693580155260861
2.1380712690423014,0.1757856965996325
2.139071302376746,0.1757856965996325
2.1400713357111902,0.23974112328141928
2.1410713690456347,0.17225047200918198
2.142071402380079,0.24681157246232033
2.1430714357145235,0.4344998598098755
2.1440714690489684,0.5376641410402954
2.145071502383413,0.17289324011653662
2.1460715357178572,0.12275732774287462
2.1470715690523017,0.44510553358122706
2.148071602386746,0.5546974958851933
2.1490716357211905,0.1192221031524241
2.150071669055635,0.17964230524376035
2.1510717023900794,0.3184802164323628
2.1520717357245243,0.3329424988478422
2.1530717690589687,0.1822133776731789
2.154071802393413,0.17289324011653662
2.1550718357278575,0.17932092119008303
2.156071869062302,0.3313355785794556
2.1570719023967464,0.48077916353940964
2.158071935731191,0.6119038574397564
2.1590719690656353,0.7182819792069495
2.16007200240008,0.6822869651950896
2.1610720357345246,0.5791226839646697
2.162072069068969,0.18317752983421087
2.1630721024034134,0.11247303802520037
2.164072135737858,0.3197657526470721
2.1650721690723023,0.12661393638700247
2.1660722024067467,0.16710832715034485
2.167072235741191,0.5035974313504994
2.1680722690756355,0.5180597137659788
2.1690723024100804,0.2828065864741802
2.170072335744525,0.1304705450311303
2.1710723690789693,0.5585541045293212
2.1720724024134137,0.26930845621973276
2.173072435747858,0.29437641240656376
2.1740724690823026,0.12789947260171175
2.175072502416747,0.1430045231245458
2.1760725357511914,0.14653974771499634
2.1770725690856363,0.18896244280040264
2.1780726024200807,0.14332590717822313
2.179072635754525,0.11729379883036017
2.1800726690889696,0.16293033445253968
2.181072702423414,0.1661441749893129
2.1820727357578584,0.28473489079624414
2.183072769092303,0.3940054690465331
2.1840728024267473,0.6025837198831141
2.185072835761192,0.6424353425391018
2.1860728690956366,0.6074044806882739
2.187072902430081,0.3040179340168834
2.1880729357645254,0.19988950062543154
2.18907296909897,0.1571454214863479
2.1900730024334143,0.3589746071957052
2.1910730357678587,0.41843065712600946
2.192073069102303,0.22784991329535842
2.1930731024367476,0.24520465219393373
2.1940731357711925,0.31623052805662155
2.195073169105637,0.1806064574047923
2.1960732024400813,0.36315259989351034
2.1970732357745257,0.3782576504163444
2.19807326910897,0.21145932655781507
2.1990733024434146,0.1947473557665944
2.200073335777859,0.45892504788935184
2.2010733691123034,0.45089044654741883
2.2020734024467483,0.28666319511830807
2.2030734357811927,0.246490188408643
2.204073469115637,0.23588451463729143
2.2050735024500816,0.20985240628942847
2.206073535784526,0.17321462417021394
2.2070735691189705,0.1410762188024819
2.208073602453415,0.11118750181049109
2.2090736357878593,0.17032216768711805
2.210073669122304,0.2088882541283965
2.2110737024567486,0.1947473557665944
2.212073735791193,0.5431276699528098
2.2130737691256375,0.44510553358122706
2.214073802460082,0.3184802164323628
2.2150738357945263,0.24231219571083784
2.2160738691289708,0.5277012353762984
2.217073902463415,0.6318296687677503
2.21807393579786,0.6768234362825751
2.2190739691323045,0.6996417040936649
2.220074002466749,0.18735552253201604
2.2210740358011933,0.11536549450829625
2.2220740691356378,0.2323492900468409
2.223074102470082,0.21563731925562024
2.2240741358045266,0.14525421150028706
2.225074169138971,0.32587204966694117
2.2260742024734155,0.5653031696565449
2.2270742358078603,0.413931280374527
2.2280742691423048,0.1693580155260861
2.229074302476749,0.312695303466171
2.2300743358111936,0.3094814629293978
2.231074369145638,0.30337516590952873
2.2320744024800825,0.18414168199524283
2.233074435814527,0.14878943609073758
2.2340744691489713,0.12468563206493855
2.235074502483416,0.22945683356374502
2.2360745358178606,0.34001294802874327
2.237074569152305,0.14461144339293242
2.2380746024867495,0.16132341418415308
2.239074635821194,0.17835676902905107
2.2400746691556384,0.14171898690983653
2.241074702490083,0.15746680554002523
2.242074735824527,0.1838202979415655
2.243074769158972,0.2773430575616658
2.2440748024934165,0.3891847082413733
2.245074835827861,0.17610708065330982
2.2460748691623054,0.11536549450829625
2.24707490249675,0.14075483474880457
2.248074935831194,0.1536101968958974
2.2490749691656386,0.2024605730548501
2.250075002500083,0.4849571562372148
2.2510750358345275,0.42293003387749195
2.2520750691689724,0.3573676869273186
2.253075102503417,0.23941973922774196
2.2540751358378612,0.26288077514618635
2.2550751691723057,0.46663826517760754
2.25607520250675,0.5164527934975922
2.2570752358411945,0.34579786099493504
2.258075269175639,0.17289324011653662
2.2590753025100834,0.16871524741873145
2.2600753358445282,0.22238638438284397
2.2610753691789727,0.2869845791719854
2.262075402513417,0.1571454214863479
2.2630754358478615,0.2808782821521163
2.264075469182306,0.24102665949612856
2.2650755025167504,0.3573676869273186
2.266075535851195,0.3197657526470721
2.2670755691856392,0.20149642089381814
2.268075602520084,0.34611924504861236
2.2690756358545285,0.3480475493706763
2.270075669188973,0.22881406545639038
2.2710757025234174,0.15875234175473452
2.272075735857862,0.28923426754772663
2.2730757691923063,0.17128631984815001
2.2740758025267507,0.23492036247625947
2.275075835861195,0.45121183060109615
2.2760758691956395,0.5135603370144963
2.2770759025300844,0.3862922517582774
2.278075935864529,0.1947473557665944
2.2790759691989733,0.12500701611861587
2.2800760025334177,0.6601114654913545
2.281076035867862,0.45892504788935184
2.2820760692023065,0.5903711258433759
2.283076102536751,0.5174169456586242
2.2840761358711954,0.18446306604892015
2.2850761692056403,0.22688576113432646
2.2860762025400847,0.5100251124240458
2.287076235874529,0.3519041580148041
2.2880762692089736,0.32233682507649064
2.289076302543418,0.3361563393846154
2.2900763358778624,0.1976398122496903
2.291076369212307,0.42614387441426516
2.2920764025467513,0.28344935458153486
2.293076435881196,0.937465903814882
2.2940764692156406,2.0500974976457655
2.295076502550085,1.839912326540798
2.2960765358845294,1.4275765856727958
2.297076569218974,1.6846838286146522
2.2980766025534183,1.2649562545120716
2.2990766358878627,0.1458969796076417
2.300076669222307,1.1331887925043702
2.301076702556752,1.587304460350424
2.3020767358911964,1.2273543202318251
2.303076769225641,0.8163041155785322
2.3040768025600853,1.3038437250070274
2.3050768358945297,1.5265628742054105
2.306076869228974,0.8259456371888518
2.3070769025634186,0.16260895039886236
2.308076935897863,0.24552603624761105
2.3090769692323074,0.5537333437241614
2.3100770025667523,0.246490188408643
2.3110770359011967,0.23299205815419555
2.312077069235641,0.4836716200225055
2.3130771025700856,0.3249078975059092
2.31407713590453,0.3245865134522319
2.3150771692389744,0.15328881284222007
2.316077202573419,0.1253284001722932
2.3170772359078633,0.1458969796076417
2.318077269242308,0.21113794250413775
2.3190773025767526,0.6093327850103378
2.320077335911197,0.3088386948220432
2.3210773692456415,0.32747896993532777
2.322077402580086,0.23492036247625947
2.3230774359145303,0.3171946802176535
2.3240774692489747,0.6867863419465721
2.325077502583419,0.7202102835290134
2.326077535917864,0.77098896401003
2.3270775692523085,1.0833742641843855
2.328077602586753,1.288417290430516
2.3290776359211973,1.0534855471923947
2.3300776692556417,1.0563780036754906
2.331077702590086,1.5914824530482292
2.3320777359245306,2.1635460685938597
2.333077769258975,1.8916551591828465
2.3340778025934195,1.2154631102457643
2.3350778359278643,1.1736831832677126
2.3360778692623088,0.7671323553659022
2.337077902596753,0.7382077905349433
2.3380779359311976,2.285029240883887
2.339077969265642,1.3568720938637853
2.3400780026000865,1.1846102410927415
2.341078035934531,0.5951918866485357
2.3420780692689753,1.9925697520375252
2.34307810260342,1.9433979918248951
2.3440781359378646,1.2019649799913168
2.345078169272309,0.18960521090775728
2.3460782026067535,0.753955609165132
2.347078235941198,0.7986279926262796
2.3480782692756423,0.5617679450660944
2.3490783026100868,1.1065139160491526
2.350078335944531,1.8061670009046793
2.351078369278976,1.9604313466697931
2.3520784026134205,1.4343256508000195
2.353078435947865,0.6250806036405265
2.3540784692823093,0.329728658311069
2.3550785026167538,0.7542769932188094
2.356078535951198,1.1335101765580475
2.3570785692856426,0.9210753170773387
2.358078602620087,1.315413550939411
2.359078635954532,1.1813964005559683
2.3600786692889764,1.1463655387051404
2.361078702623421,1.1386523214168847
2.362078735957865,0.40878913551568985
2.3630787692923096,1.3819400500506163
2.364078802626754,1.3459450360387564
2.3650788359611985,1.2842392977327108
2.366078869295643,1.3999375570565462
2.3670789026300874,2.2798870960250497
2.3680789359645322,2.3538054283708334
2.3690789692989767,1.9970691287890077
2.370079002633421,3.4050526679493487
2.3710790359678655,4.003469775896519
2.37207906930231,3.7759298658929765
2.3730791026367544,2.117588148918003
2.374079135971199,1.069876133929938
2.3750791693056432,1.1875026975758374
2.376079202640088,0.6009767996147275
2.3770792359745325,2.798600958660245
2.378079269308977,1.757638008799404
2.3790793026434214,1.180110864341259
2.380079335977866,2.0292075341567397
2.3810793693123102,1.6207284019328654
2.3820794026467547,0.8262670212425292
2.383079435981199,1.3710129922255874
2.384079469315644,0.463103040587157
2.3850795026500884,1.274276392068714
2.386079535984533,1.8967973040416837
2.3870795693189772,1.2720267036929727
2.3880796026534217,1.3504444127902389
2.389079635987866,1.2360316896811128
2.3900796693223105,1.188145465683192
2.391079702656755,1.022632678039372
2.3920797359911994,1.1084422203712165
2.3930797693256443,0.797021072357893
2.3940798026600887,0.22720714518800378
2.395079835994533,0.4065394471399486
2.3960798693289775,0.7934858477674425
2.397079902663422,0.42293003387749195
2.3980799359978664,1.7492820234037936
2.399079969332311,0.36154567962512374
2.4000800026667553,1.3562293257564306
2.4010800360012,0.7346725659444928
2.4020800693356446,2.292099690064788
2.403080102670089,0.329728658311069
2.4040801360045334,1.4744986575096846
2.405080169338978,1.1833247048780322
2.4060802026734223,1.374548216816038
2.4070802360078667,1.4815691066905856
2.408080269342311,1.3992947889491916
2.409080302676756,0.8719035568647087
2.4100803360112004,0.4553898232989013
2.411080369345645,0.5598396407440305
2.4120804026800893,0.9252533097751439
2.4130804360145337,1.6236208584159613
2.414080469348978,2.169973749667406
2.4150805026834226,0.6061189444735646
2.416080536017867,0.9188256287015975
2.417080569352312,2.208218452055007
2.4180806026867563,2.128836590796709
2.4190806360212007,0.2905198037624359
2.420080669355645,1.0984793147072196
2.4210807026900896,0.19699704414233565
2.422080736024534,0.9230036213994026
2.4230807693589784,0.5890855896286666
2.424080802693423,0.6147963139228523
2.4250808360278673,1.282310993410647
2.426080869362312,2.2123964447528124
2.4270809026967566,1.5233490336686373
2.428080936031201,0.9847093597054482
2.4290809693656454,1.1823605527170002
2.43008100270009,2.75842795195058
2.4310810360345343,1.7431757263839245
2.4320810693689787,0.3702230490744114
2.433081102703423,0.9419652805663645
2.434081136037868,1.2855248339474201
2.4350811693723124,0.20149642089381814
2.436081202706757,2.6616913517937064
2.4370812360412013,3.4558313484303653
2.4380812693756457,1.4256482813507318
2.43908130271009,0.7292090370319784
2.4400813360445346,0.29919717321172357
2.441081369378979,0.9538564905524254
2.442081402713424,0.5820151404477656
2.4430814360478683,0.5280226194299757
2.4440814693823127,0.7761311088688672
2.445081502716757,0.19731842819601297
2.4460815360512016,2.667154880706221
2.447081569385646,2.268317270092666
2.4480816027200905,0.2371700508520007
2.449081636054535,0.504240199457854
2.4500816693889793,0.9377872878685594
2.451081702723424,0.22527884086593986
2.4520817360578686,0.24391911597922444
2.453081769392313,0.25356063758954406
2.4540818027267575,0.3673305925913155
2.455081836061202,1.8540532249026
2.4560818693956463,2.4360797461122274
2.4570819027300907,1.5718780257739127
2.458081936064535,0.95449925865978
2.45908196939898,0.5286653875373304
2.4600820027334245,0.29759025294333696
2.461082036067869,0.5845862128771842
2.4620820694023133,0.3609029115177691
2.4630821027367578,1.1752901035360992
2.464082136071202,0.7513845367357135
2.4650821694056466,0.22495745681226254
2.466082202740091,0.8690111003816128
2.467082236074536,2.310097197070718
2.4680822694089803,2.834595972672105
2.4690823027434248,1.5567729752510786
2.470082336077869,0.2606310867704451
2.4710823694123136,0.6768234362825751
2.472082402746758,0.745921007823199
2.4730824360812025,2.133978735655546
2.474082469415647,3.7245084173046052
2.4750825027500913,0.9365017516538501
2.476082536084536,0.7359581021592021
2.4770825694189806,1.4044369338080287
2.478082602753425,0.312695303466171
2.4790826360878695,1.9270074050873518
2.480082669422314,3.0164993470534682
2.4810827027567584,4.267647468019277
2.482082736091203,3.670194512233138
2.483082769425647,1.5921252211555839
2.484082802760092,0.6360076614655554
2.4850828360945365,1.915116195101291
2.486082869428981,0.9104696433059871
2.4870829027634254,0.29244810808449984
2.48808293609787,1.1132629811763763
2.489082969432314,0.9017922738566995
2.4900830027667586,0.1931404354982078
2.491083036101203,0.4531401349231601
2.492083069435648,1.0149194607511163
2.4930831027700924,1.80488146468997
2.494083136104537,1.4863898674957454
2.4950831694389812,1.2405310664325953
2.4960832027734257,0.914326251950115
2.49708323610787,0.3997903820127249
2.4980832694423145,2.311382733285427
2.499083302776759,2.441543275024742
2.500083336111204,1.745746798813343
2.5010833694456482,0.9413225124590099
2.5020834027800927,1.547131453640759
2.503083436114537,1.0814459598623216
2.5040834694489815,0.5617679450660944
2.505083502783426,2.246141770388931
2.5060835361178704,3.4510105876252055
2.507083569452315,1.640332829207182
2.5080836027867592,1.1707907267846167
2.509083636121204,1.4687137445434928
2.5100836694556485,1.6088371919468045
2.511083702790093,1.4012230932712555
2.5120837361245374,2.8873029574751854
2.513083769458982,4.5520723555237055
2.5140838027934262,4.856744438409805
2.5150838361278707,2.984039557632059
2.516083869462315,2.3538054283708334
2.51708390279676,2.9377602539025247
2.5180839361312044,1.2045360524207354
2.519083969465649,1.7152153137139976
2.5200840028000933,2.108589395415038
2.5210840361345377,2.1050541708245873
2.522084069468982,2.336450689472258
2.5230841028034265,1.2466373634524643
2.524084136137871,3.2202568370848894
2.525084169472316,5.862033758312464
2.5260842028067603,4.291429887991399
2.5270842361412047,2.9184772106818855
2.528084269475649,0.3547966144979
2.5290843028100936,2.800850647035986
2.530084336144538,2.0282433819957078
2.5310843694789824,1.6441894378513098
2.532084402813427,2.3120255013927817
2.5330844361478713,2.3769450802356005
2.534084469482316,1.0502717066556215
2.5350845028167606,1.1585781327448785
2.536084536151205,0.6986775519326329
2.5370845694856494,1.605301967356354
2.538084602820094,1.2074285089038312
2.5390846361545383,0.363795368000865
2.5400846694889827,1.5008521499112248
2.541084702823427,0.630544132553041
2.542084736157872,0.1539315809495747
2.5430847694923164,0.3181588323786855
2.544084802826761,1.3954381803050637
2.5450848361612053,0.6668605306185782
2.5460848694956497,0.4030042225494981
2.547084902830094,0.7407788629643619
2.5480849361645386,0.8294808617793024
2.549084969498983,0.6973920157179236
2.550085002833428,1.071804438252002
2.5510850361678723,1.6509385029785335
2.5520850695023167,1.4185778321698308
2.553085102836761,0.43225017143413424
2.5540851361712056,1.1977869872935116
2.55508516950565,1.3600859344005585
2.5560852028400944,1.002706866711378
2.557085236174539,0.4704948738217354
2.5580852695089837,0.3625098317861557
2.559085302843428,0.47917224327102304
2.5600853361778726,1.6637938651256263
2.561085369512317,2.2345719444565475
2.5620854028467615,1.47385588940233
2.563085436181206,0.8333374704234302
2.5640854695156503,0.43996338872238994
2.5650855028500947,0.5903711258433759
2.566085536184539,0.17450016038492322
2.567085569518984,0.321694056969136
2.5680856028534285,0.7202102835290134
2.569085636187873,0.5829792926087976
2.5700856695223173,0.37118720123544335
2.5710857028567617,0.46374580869451165
2.572085736191206,0.6241164514794946
2.5730857695256506,0.6160818501375616
2.574085802860095,0.18896244280040264
2.57508583619454,1.1241900390014052
2.5760858695289843,1.6040164311416447
2.5770859028634288,0.4598892000503838
2.578085936197873,0.19667566008865833
2.5790859695323176,0.25806001434102654
2.580086002866762,0.3904702444560826
2.5810860362012065,0.25163233326748013
2.582086069535651,0.1616447982378304
2.5830861028700958,0.2773430575616658
2.58408613620454,0.20053226873278618
2.5850861695389846,0.4190734252333641
2.586086202873429,0.2352417465299368
2.5870862362078735,0.1822133776731789
2.588086269542318,0.1741787763312459
2.5890863028767623,0.2824852024205029
2.5900863362112068,0.2477757246233523
2.591086369545651,0.30369654996320605
2.592086402880096,0.43996338872238994
2.5930864362145405,0.8056984418071806
2.594086469548985,0.8651544917374849
2.5950865028834293,1.0881950249895453
2.5960865362178738,0.7841657102108002
2.597086569552318,0.7825587899424136
2.5980866028867626,0.2529178694821894
2.599086636221207,0.49684836622327566
2.600086669555652,0.14782528392970562
2.6010867028900964,0.17835676902905107
2.602086736224541,0.563374865334481
2.603086769558985,0.32715758588165045
2.6040868028934296,0.6630039219744503
2.605086836227874,1.0033496348187327
2.6060868695623185,0.6495057917200029
2.607086902896763,0.4454269176349044
2.608086936231208,0.1661441749893129
2.6090869695656522,0.18799829063937068
2.6100870029000967,0.404932526871562
2.611087036234541,0.6983561678789556
2.6120870695689855,0.17674984876066446
2.61308710290343,0.455068439245224
2.6140871362378744,0.44157030899077654
2.615087169572319,0.4033256066031754
2.6160872029067637,0.18253476172685623
2.617087236241208,0.20278195710852742
2.6180872695756525,0.155217117164284
2.619087302910097,0.3763293460942805
2.6200873362445414,0.3904702444560826
2.621087369578986,0.5360572207719088
2.6220874029134302,0.20631718169897795
2.6230874362478747,0.2969474848359823
2.624087469582319,0.2570958621799946
2.625087502916764,0.22367192059755325
2.6260875362512084,0.330692810472101
2.627087569585653,0.3486903174780309
2.6280876029200972,0.280556898098439
2.6290876362545417,0.17192908795550466
2.630087669588986,0.15007497230544686
2.6310877029234305,0.1960328919813037
2.632087736257875,0.23299205815419555
2.63308776959232,0.30337516590952873
2.6340878029267643,0.2699512243270874
2.6350878362612087,0.3059462383389473
2.636087869595653,0.5505195031873882
2.6370879029300975,0.20342472521588206
2.638087936264542,0.19731842819601297
2.6390879695989864,0.17707123281434178
2.640088002933431,0.19860396441072226
2.6410880362678757,0.2686656881123781
2.64208806960232,0.3499758536927402
2.6430881029367645,0.35672491881996393
2.644088136271209,0.5064898878335953
2.6450881696056534,0.5084181921556592
2.646088202940098,0.19217628333717585
2.6470882362745423,0.13400576962158084
2.6480882696089867,0.5958346547558904
2.649088302943431,0.497169750276953
2.650088336277876,0.1426831390708685
2.6510883696123204,0.14878943609073758
2.652088402946765,0.2117807106114924
2.6530884362812093,0.3544752304442227
2.6540884696156537,0.2632021591998637
2.655088502950098,0.24713295651599765
2.6560885362845426,0.30208962969481945
2.657088569618987,0.4033256066031754
2.658088602953432,0.17385739227756858
2.6590886362878763,0.39914761390537024
2.6600886696223207,0.2101737903431058
2.661088702956765,0.24584742030128837
2.6620887362912096,0.4344998598098755
2.663088769625654,0.30048270942643285
2.6640888029600984,0.19121213117614388
2.665088836294543,0.15746680554002523
2.6660888696289877,0.47435148246586323
2.667088902963432,0.2561317100189626
2.6680889362978766,0.2182083916850388
2.669088969632321,0.29276949213817716
2.6700890029667654,0.4537829030305147
2.67108903630121,0.20985240628942847
2.6720890696356543,0.2522751013748348
2.6730891029700987,0.20374610926955938
2.674089136304543,0.2339562103152275
2.675089169638988,0.3155877599492669
2.6760892029734324,0.20149642089381814
2.677089236307877,0.4081463674083352
2.6780892696423213,0.8834733827970922
2.6790893029767657,0.37279412150382996
2.68008933631121,0.1928190514445305
2.6810893696456546,0.1475038998760283
2.682089402980099,0.1947473557665944
2.683089436314544,0.3515827739611268
2.6840894696489883,0.32072990480810404
2.6850895029834327,0.24552603624761105
2.686089536317877,0.4756370186805725
2.6870895696523216,0.4068608311936259
2.688089602986766,0.41168159199878573
2.6890896363212105,0.25966693460941315
2.690089669655655,0.21628008736297488
2.6910897029900998,0.32555066561326385
2.692089736324544,0.20792410196736455
2.6930897696589886,0.24873987678438425
2.694089802993433,0.4547470551915467
2.6950898363278775,0.38179287500679493
2.696089869662322,0.1285422407090664
2.6970899029967663,0.16742971120402217
2.6980899363312107,0.163251718506217
2.6990899696656556,0.11857933504506946
2.7000900030001,0.12661393638700247
2.7010900363345445,0.24391911597922444
2.702090069668989,0.2869845791719854
2.7030901030034333,0.23331344220787287
2.7040901363378778,0.3339066510088742
2.705090169672322,0.18639137037098408
2.7060902030067666,0.3345494191162288
2.707090236341211,0.14075483474880457
2.708090269675656,0.16035926202312112
2.7090903030101003,0.4788508592173457
2.7100903363445448,0.7327442616224289
2.711090369678989,0.8693324844352901
2.7120904030134336,0.5868359012529254
2.713090436347878,0.1757856965996325
2.7140904696823225,0.20535302953794599
2.715090503016767,0.13689822610467672
2.716090536351212,0.4990980545990169
2.717090569685656,0.904363346286118
2.7180906030201006,0.4782080911099911
2.719090636354545,0.2416694276034832
2.7200906696889895,0.4155382006429136
2.721090703023434,0.19185489928349853
2.7220907363578783,0.15264604473486543
2.7230907696923228,0.2702726083807647
2.7240908030267676,0.16582279093563557
2.725090836361212,0.1571454214863479
2.7260908696956565,0.40268283849582076
2.727090903030101,0.4267866425216198
2.7280909363645454,0.2773430575616658
2.72909096969899,0.196354276034981
2.730091003033434,0.6459705671295524
2.7310910363678786,0.6948209432885051
2.732091069702323,0.24841849273070693
2.733091103036768,0.23974112328141928
2.7340911363712124,0.1208290234208107
2.735091169705657,0.19539012387394905
2.7360912030401012,0.8503708252683282
2.7370912363745457,0.45924643194302917
2.73809126970899,0.6948209432885051
2.7390913030434345,0.6774662043899298
2.740091336377879,0.45089044654741883
2.741091369712324,0.40557529497891665
2.7420914030467682,0.3625098317861557
2.7430914363812127,0.3107669991441071
2.744091469715657,0.27702167350798845
2.7450915030501015,0.19378320360556245
2.746091536384546,0.2889128834940493
2.7470915697189904,0.45249736681580544
2.748091603053435,0.4444627654738724
2.7490916363878797,0.38243564311414957
2.750091669722324,0.3104456150904298
2.7510917030567685,0.40075453417375684
2.752091736391213,0.2593455505557358
2.7530917697256574,0.32394374534487724
2.754091803060102,0.1430045231245458
2.7550918363945462,0.3040179340168834
2.7560918697289907,0.35543938260525465
2.7570919030634355,0.446069685742259
2.75809193639788,0.4457483016885817
2.7590919697323244,0.4078249833546579
2.760092003066769,0.1677510952576995
2.7610920364012133,0.17128631984815001
2.7620920697356577,0.36475952016189694
2.763092103070102,0.589406973682344
2.7640921364045465,0.41200297605246305
2.765092169738991,0.19828258035704494
2.766092203073436,0.4004331501200795
2.7670922364078803,0.40268283849582076
2.7680922697423247,0.43546401197090745
2.769092303076769,0.5389496772550046
2.7700923364112136,0.5601610247977078
2.771092369745658,0.15875234175473452
2.7720924030801024,0.14461144339293242
2.773092436414547,0.2593455505557358
2.7740924697489917,0.12597116827964783
2.775092503083436,0.46246027247980237
2.7760925364178806,0.43835646845400333
2.777092569752325,0.4364281641319394
2.7780926030867694,0.5260943151079118
2.779092636421214,0.3731155055575073
2.7800926697556583,0.14396867528557777
2.7810927030901027,0.36636644043028355
2.7820927364245476,0.22688576113432646
2.783092769758992,0.27830720972269773
2.7840928030934364,0.2824852024205029
2.785092836427881,0.17771400092169642
2.7860928697623253,0.22656437708064914
2.7870929030967697,0.18574860226362944
2.788092936431214,0.1571454214863479
2.7890929697656586,0.18092784145846963
2.790093003100103,0.13368438556790352
2.791093036434548,0.15328881284222007
2.7920930697689923,0.2718795286491513
2.7930931031034367,0.3107669991441071
2.794093136437881,0.26255939109250903
2.7950931697723256,0.3448337088339031
2.79609320310677,0.15810957364737988
2.7970932364412144,0.11600826261565089
2.798093269775659,0.19667566008865833
2.7990933031101037,0.196354276034981
2.800093336444548,0.1539315809495747
2.8010933697789926,0.2149945511482656
2.802093403113437,0.36154567962512374
2.8030934364478814,0.5203094021417201
2.804093469782326,0.27702167350798845
2.8050935031167703,0.32876450615003705
2.8060935364512147,0.1992467325180769
2.8070935697856596,0.24102665949612856
2.808093603120104,0.2853776589035988
2.8090936364545485,0.30176824564114213
2.810093669788993,0.296626100782305
2.8110937031234373,0.24713295651599765
2.8120937364578817,0.19249766739085317
2.813093769792326,0.23170652193948627
2.8140938031267706,0.29759025294333696
2.8150938364612155,0.3654022882692516
2.81609386979566,0.4190734252333641
2.8170939031301043,0.16132341418415308
2.8180939364645488,0.6903215665370226
2.819093969798993,0.7333870297297835
2.8200940031334376,0.3904702444560826
2.821094036467882,0.49170622136443853
2.8220940698023265,0.539271061308682
2.823094103136771,0.2522751013748348
2.8240941364712158,0.3464406291022897
2.82509416980566,0.6022623358294368
2.8260942031401046,0.6421139584854245
2.827094236474549,0.2985544051043689
2.8280942698089935,0.36829474475234747
2.829094303143438,0.13625545799732208
2.8300943364778823,0.12597116827964783
2.8310943698123268,0.17964230524376035
2.8320944031467716,0.22367192059755325
2.833094436481216,0.2040674933232367
2.8340944698156605,0.2339562103152275
2.835094503150105,0.3419412523508072
2.8360945364845493,0.546341510489583
2.8370945698189938,0.4001117660664022
2.838094603153438,0.2509895651601255
2.8390946364878826,0.3715085852891207
2.8400946698223275,0.27541475323960185
2.841094703156772,0.2744506010785699
2.8420947364912164,0.1928190514445305
2.843094769825661,0.25484617380425334
2.844094803160105,0.19378320360556245
2.8450948364945496,0.2734864489175379
2.846094869828994,0.2686656881123781
2.8470949031634385,0.3862922517582774
2.848094936497883,0.17867815308272839
2.849094969832328,0.263523543253541
2.8500950031667722,0.4412489249370992
2.8510950365012167,0.5572685683146119
2.852095069835661,0.8436217601411045
2.8530951031701055,0.9197897808626294
2.85409513650455,0.5755874593742192
2.8550951698389944,1.2186769507825375
2.856095203173439,1.8386267903260887
2.8570952365078837,1.9761791652999818
2.858095269842328,2.1651529888622463
2.8590953031767725,1.7338555888272822
2.860095336511217,0.9712112294510007
2.8610953698456614,0.23459897842258215
2.862095403180106,0.9493571138009429
2.8630954365145502,1.3552651735953987
2.8640954698489947,1.2778116166591644
2.8650955031834395,1.6441894378513098
2.866095536517884,1.8042386965826154
2.8670955698523284,1.2083926610648632
2.868095603186773,0.5678742420859635
2.8690956365212172,0.388863324187696
2.8700956698556617,0.3911130125634372
2.871095703190106,0.17932092119008303
2.8720957365245505,0.22013669600710273
2.873095769858995,0.18799829063937068
2.87409580319344,0.1333630015142262
2.8750958365278843,0.13304161746054888
2.8760958698623287,0.5418421337381005
2.877095903196773,0.23170652193948627
2.8780959365312175,0.30980284698307514
2.879095969865662,0.2024605730548501
2.8800960032001064,0.3268362018279731
2.881096036534551,0.37890041852369905
2.8820960698689957,0.20053226873278618
2.88309610320344,0.2930908761918545
2.8840961365378845,0.25516755785793066
2.885096169872329,0.47178041003644466
2.8860962032067734,0.18446306604892015
2.887096236541218,0.7359581021592021
2.8880962698756623,1.0438440255820751
2.8890963032101067,1.35751486197114
2.8900963365445516,1.173040415160358
2.891096369878996,0.9879232002422214
2.8920964032134404,0.4788508592173457
2.893096436547885,0.24295496381819248
2.8940964698823293,0.796056920196861
2.8950965032167737,0.7234241240657866
2.896096536551218,1.1749687194824219
2.8970965698856626,0.7738814204931259
2.8980966032201074,0.1571454214863479
2.899096636554552,0.14878943609073758
2.9000966698889963,0.38211425906047225
2.9010967032234407,0.130149160977453
2.902096736557885,0.42935771495103836
2.9030967698923296,0.8073053620755672
2.904096803226774,0.7076763054355979
2.9050968365612184,1.4905678601935506
2.906096869895663,2.263175125233829
2.9070969032301077,2.899836935568601
2.908096936564552,2.3891576742753386
2.9090969698989966,1.3687633038498461
2.910097003233441,1.9417910715565085
2.9110970365678854,2.3898004423826933
2.91209706990233,0.42164449766278267
2.9130971032367743,0.221422232221812
2.9140971365712187,0.15200327662751079
2.9150971699056636,0.47467286651954055
2.916097203240108,0.8458714485168457
2.9170972365745524,0.3644381361082196
2.918097269908997,0.3769721142016351
2.9190973032434413,0.5505195031873882
2.9200973365778857,0.881223694421351
2.92109736991233,2.4219388477504253
2.9220974032467746,2.0822359030134976
2.9230974365812195,1.6467605102807283
2.924097469915664,1.4757841937243938
2.9250975032501083,1.3864394268020988
2.9260975365845527,0.5093823443166912
2.927097569918997,0.8034487534314394
2.9280976032534416,1.073732742574066
2.929097636587886,0.5579113364219666
2.9300976699223305,0.831087782047689
2.931097703256775,1.8993683764711022
2.9320977365912197,1.7801348925568163
2.933097769925664,0.7578122178092599
2.9340978032601086,1.2257473999634385
2.935097836594553,1.9591458104550838
2.9360978699289975,1.6008025906048715
2.937097903263442,0.263523543253541
2.9380979365978863,0.6732882116921246
2.9390979699323307,0.35543938260525465
2.9400980032667756,1.0676264455541968
2.94109803660122,0.8757601655088365
2.9420980699356645,1.70653794426471
2.943098103270109,0.48849238082766533
2.9440981366045533,0.4203589614480734
2.9450981699389978,0.7597405221313238
2.946098203273442,0.8028059853240848
2.9470982366078866,0.396897925529629
2.9480982699423315,0.32265820913016796
2.949098303276776,0.3390487958677113
2.9500983366112203,0.5836220607161522
2.9510983699456648,0.5048829675652087
2.952098403280109,0.6151176979765296
2.9530984366145536,1.5840906198136508
2.954098469948998,1.1807536324486136
2.9550985032834425,2.9072287688031793
2.9560985366178874,2.567204440012574
2.957098569952332,2.1876498726196587
2.958098603286776,0.6289372122846544
2.9590986366212206,0.8307663979940116
2.960098669955665,1.0239182142540812
2.9610987032901095,0.34772616531699896
2.962098736624554,2.675189482048154
2.9630987699589983,4.276967605575919
2.9640988032934428,3.09427428804338
2.9650988366278876,0.8253028690814972
2.966098869962332,1.3160563190467656
2.9670989032967765,1.182039168663323
2.968098936631221,1.2341033853590488
2.9690989699656654,2.314275189768523
2.97009900330011,3.190689504146576
2.971099036634554,2.9326181090436876
2.9720990699689986,2.027279229834676
2.9730991033034435,1.5194924250245094
2.974099136637888,1.7238926831632853
2.9750991699723324,1.3919029557146132
2.976099203306777,0.5569471842609346
2.9770992366412212,2.136871192138642
2.9780992699756657,3.9684389140456915
2.97909930331011,4.327103517949581
2.9800993366445545,3.309280219953507
2.9810993699789994,2.949972847942263
2.982099403313444,0.4579608957283199
2.9830994366478882,1.064733989071101
2.9840994699823327,0.8224104125984013
2.985099503316777,0.7375650224275887
2.9860995366512215,0.46535272896289825
2.987099569985666,0.2497040289454162
2.9880996033201104,1.3160563190467656
2.989099636654555,1.5368471639230847
2.9900996699889997,2.124658598098904
2.991099703323444,1.7033241037279367
2.9920997366578885,1.265277638565749
2.993099769992333,0.42196588171646
2.9940998033267774,0.8619406512007117
2.995099836661222,0.7266379646025598
2.9960998699956662,1.5898755327798426
2.9970999033301107,1.7955613271333277
2.9980999366645555,1.2578858053311706
2.999099969999,1.0525213950313628
3.0001000033334444,0.8445859123021364
3.001100036667889,0.42614387441426516
3.0021000700023333,1.3311613695695996
3.0031001033367777,2.084806975442916
3.004100136671222,4.526683015283197
3.0051001700056665,4.760971990413964
3.0061002033401114,2.859663928858936
3.007100236674556,1.481890490744263
3.0081002700090003,1.2591713415458798
3.0091003033434447,0.2731650648638606
3.010100336677889,1.0361308082938194
3.0111003700123335,1.1958586829714477
3.012100403346778,4.434124407824129
3.0131004366812224,3.0116785862483084
3.0141004700156673,0.5749446912668645
3.0151005033501117,1.8087380733340979
3.016100536684556,3.518501238897443
3.0171005700190006,4.484260320197791
3.018100603353445,1.472891737241298
3.0191006366878894,1.1212975825183094
3.020100670022334,1.5677000330761075
3.0211007033567783,1.8151657544076443
3.0221007366912227,1.930221245624125
3.0231007700256676,0.5900497417896986
3.024100803360112,1.1987511394545436
3.0251008366945564,0.6401856541633606
3.026100870029001,0.956427562981844
3.0271009033634453,1.754745552316308
3.0281009366978897,0.5100251124240458
3.029100970032334,1.9057960575446486
3.0301010033667786,1.2485656677745283
3.0311010367012234,0.872224940918386
3.032101070035668,1.4998879977501929
3.0331011033701123,1.0724472063593566
3.0341011367045567,0.43257155548781157
3.035101170039001,0.2622380070388317
3.0361012033734456,0.4942772937938571
3.03710123670789,0.6514340960420668
3.0381012700423344,1.3504444127902389
3.0391013033767793,2.0639170119538903
3.0401013367112237,1.8874771664850414
3.041101370045668,0.5720522347837687
3.0421014033801126,0.779023565351963
3.043101436714557,0.1539315809495747
3.0441014700490014,0.6189743066206574
3.045101503383446,1.9781074696220458
3.0461015367178903,2.8741262112744153
3.0471015700523347,3.264929220546037
3.0481016033867796,2.5643119835294783
3.049101636721224,2.7581065678969026
3.0501016700556685,1.5500239101238549
3.051101703390113,0.3673305925913155
3.0521017367245573,3.394446994177997
3.0531017700590017,3.773358793463558
3.054101803393446,1.8656230508349836
3.0551018367278906,2.0973409535363317
3.0561018700623355,2.719540481455624
3.05710190339678,0.9898515045642853
3.0581019367312243,0.3657236723229289
3.0591019700656688,0.90532749844715
3.060102003400113,2.310418581124395
3.0611020367345576,2.30624058842659
3.062102070069002,0.4672810332849622
3.0631021034034465,2.168045445345342
3.0641021367378913,3.7540757502429187
3.0651021700723358,2.8021361832506955
3.06610220340678,0.847156984731555
3.0671022367412246,0.8545488179661334
3.068102270075669,0.29919717321172357
3.0691023034101135,1.6165504092350602
3.070102336744558,2.287278929259628
3.0711023700790023,2.9197627468965948
3.0721024034134468,3.4792923843488097
3.0731024367478916,4.468512501567602
3.074102470082336,2.191827865317464
3.0751025034167805,1.7193933064118028
3.076102536751225,3.6663379035890102
3.0771025700856693,1.2000366756692529
3.0781026034201138,1.4025086294859648
3.079102636754558,0.9866376640275121
3.0801026700890026,0.6164032341912389
3.0811027034234475,1.588268612511456
